subject,train_epochs,retraining_epochs,retraining_samples,retraining_method,train_loss,val_loss,train_accuracy,val_accuracy,test_accuracy,pre_retraining_train_accuracy,pre_retraining_test_accuracy,new_train_loss,new_val_loss,new_train_accuracy,new_val_accuracy,new_test_accuracy,r_train_loss,r_val_loss,r_train_accuracy,r_val_accuracy,r_test_accuracy
11, 21, 31, 83Perc, all, 1.7060757875442505, 1.7777552604675293, 0.46245118975639343, 0.4456040859222412, 0.42536646127700806, 0.5825495719909668, 0.492510050535202, 0.10583250224590302, 0.2253463715314865, 0.9925795793533325, 0.9494271278381348, 0.6364632844924927, 0.09770103543996811, 0.13226871192455292, 0.9918770790100098, 0.9802449345588684, 0.6945560574531555
11, 21, 40, 83Perc, first, 1.7060757875442505, 1.7777552604675293, 0.46245118975639343, 0.4456040859222412, 0.42536646127700806, 0.5825495719909668, 0.492510050535202, 0.10583250224590302, 0.2253463715314865, 0.9925795793533325, 0.9494271278381348, 0.6364632844924927, 0.0851864144206047, 0.12258737534284592, 0.9929747581481934, 0.9798498749732971, 0.6629521250724792
11, 21, 37, 83Perc, last, 1.7060757875442505, 1.7777552604675293, 0.46245118975639343, 0.4456040859222412, 0.42536646127700806, 0.5825495719909668, 0.492510050535202, 0.10583250224590302, 0.2253463715314865, 0.9925795793533325, 0.9494271278381348, 0.6364632844924927, 0.08964516967535019, 0.11667751520872116, 0.9928869605064392, 0.9845910668373108, 0.6554622054100037
11, 21, 44, 83Perc, first_last, 1.7060757875442505, 1.7777552604675293, 0.46245118975639343, 0.4456040859222412, 0.42536646127700806, 0.5825495719909668, 0.492510050535202, 0.10583250224590302, 0.2253463715314865, 0.9925795793533325, 0.9494271278381348, 0.6364632844924927, 0.09214887768030167, 0.11942491680383682, 0.9912184476852417, 0.9798498749732971, 0.6698940396308899
11, 21, 11, 83Perc, new, 1.7060757875442505, 1.7777552604675293, 0.46245118975639343, 0.4456040859222412, 0.42536646127700806, 0.5825495719909668, 0.492510050535202, 0.10583250224590302, 0.2253463715314865, 0.9925795793533325, 0.9494271278381348, 0.6364632844924927, 2.849996566772461, 2.8502089977264404, 0.10682766139507294, 0.10628210008144379, 0.08494701981544495
11, 21, 51, 60Perc, all, 1.7060757875442505, 1.7777552604675293, 0.46245118975639343, 0.4456040859222412, 0.42536646127700806, 0.5722663998603821, 0.5378986597061157, 0.11649452894926071, 0.4197433590888977, 0.9906119108200073, 0.8866799473762512, 0.6162288784980774, 0.07753250747919083, 0.15119315683841705, 0.9935387969017029, 0.968687891960144, 0.6846153736114502
11, 21, 52, 60Perc, first, 1.7060757875442505, 1.7777552604675293, 0.46245118975639343, 0.4456040859222412, 0.42536646127700806, 0.5722663998603821, 0.5378986597061157, 0.11649452894926071, 0.4197433590888977, 0.9906119108200073, 0.8866799473762512, 0.6162288784980774, 0.07530020922422409, 0.12932254374027252, 0.9948089122772217, 0.974652111530304, 0.6677298545837402
11, 21, 50, 60Perc, last, 1.7060757875442505, 1.7777552604675293, 0.46245118975639343, 0.4456040859222412, 0.42536646127700806, 0.5722663998603821, 0.5378986597061157, 0.11649452894926071, 0.4197433590888977, 0.9906119108200073, 0.8866799473762512, 0.6162288784980774, 0.06746751070022583, 0.1072717010974884, 0.9964656233787537, 0.9821073412895203, 0.6714822053909302
11, 21, 46, 60Perc, first_last, 1.7060757875442505, 1.7777552604675293, 0.46245118975639343, 0.4456040859222412, 0.42536646127700806, 0.5722663998603821, 0.5378986597061157, 0.11649452894926071, 0.4197433590888977, 0.9906119108200073, 0.8866799473762512, 0.6162288784980774, 0.06916668266057968, 0.12268805503845215, 0.996741771697998, 0.974155068397522, 0.6687617301940918
11, 21, 11, 60Perc, new, 1.7060757875442505, 1.7777552604675293, 0.46245118975639343, 0.4456040859222412, 0.42536646127700806, 0.5722663998603821, 0.5378986597061157, 0.11649452894926071, 0.4197433590888977, 0.9906119108200073, 0.8866799473762512, 0.6162288784980774, 2.8575382232666016, 2.860585927963257, 0.10785288363695145, 0.10238568484783173, 0.09455909579992294
11, 21, 58, 30Perc, all, 1.7060757875442505, 1.7777552604675293, 0.46245118975639343, 0.4456040859222412, 0.42536646127700806, 0.5485499501228333, 0.5675871968269348, 0.3357604444026947, 11.568939208984375, 0.991970956325531, 0.09099900722503662, 0.20380131900310516, 0.054729290306568146, 0.07681635022163391, 0.9986801743507385, 0.9910979270935059, 0.6339894533157349
11, 21, 17, 30Perc, first, 1.7060757875442505, 1.7777552604675293, 0.46245118975639343, 0.4456040859222412, 0.42536646127700806, 0.5485499501228333, 0.5675871968269348, 0.3357604444026947, 11.568939208984375, 0.991970956325531, 0.09099900722503662, 0.20380131900310516, 0.11101894825696945, 0.45046061277389526, 0.9961504340171814, 0.8724035620689392, 0.6027953624725342
11, 21, 19, 30Perc, last, 1.7060757875442505, 1.7777552604675293, 0.46245118975639343, 0.4456040859222412, 0.42536646127700806, 0.5485499501228333, 0.5675871968269348, 0.3357604444026947, 11.568939208984375, 0.991970956325531, 0.09099900722503662, 0.20380131900310516, 0.10296516120433807, 0.34305623173713684, 0.9968103766441345, 0.909990131855011, 0.6058906316757202
11, 21, 18, 30Perc, first_last, 1.7060757875442505, 1.7777552604675293, 0.46245118975639343, 0.4456040859222412, 0.42536646127700806, 0.5485499501228333, 0.5675871968269348, 0.3357604444026947, 11.568939208984375, 0.991970956325531, 0.09099900722503662, 0.20380131900310516, 0.10681147873401642, 0.42677512764930725, 0.9957104921340942, 0.8911968469619751, 0.6158050298690796
11, 21, 11, 30Perc, new, 1.7060757875442505, 1.7777552604675293, 0.46245118975639343, 0.4456040859222412, 0.42536646127700806, 0.5485499501228333, 0.5675871968269348, 0.3357604444026947, 11.568939208984375, 0.991970956325531, 0.09099900722503662, 0.20380131900310516, 2.876805067062378, 2.8668341636657715, 0.1060272753238678, 0.11078140139579773, 0.10112685710191727
11, 21, 26, 16Perc, all, 1.7060757875442505, 1.7777552604675293, 0.46245118975639343, 0.4456040859222412, 0.42536646127700806, 0.5674145817756653, 0.5583943128585815, 0.5003952980041504, 13.35756778717041, 0.994833767414093, 0.06262626498937607, 0.19211861491203308, 0.09567072242498398, 0.29822060465812683, 0.9986522793769836, 0.9212121367454529, 0.5733751654624939
11, 21, 26, 16Perc, first, 1.7060757875442505, 1.7777552604675293, 0.46245118975639343, 0.4456040859222412, 0.42536646127700806, 0.5674145817756653, 0.5583943128585815, 0.5003952980041504, 13.35756778717041, 0.994833767414093, 0.06262626498937607, 0.19211861491203308, 0.0932018831372261, 0.37201988697052, 0.9993261694908142, 0.903030276298523, 0.5664847493171692
11, 21, 28, 16Perc, last, 1.7060757875442505, 1.7777552604675293, 0.46245118975639343, 0.4456040859222412, 0.42536646127700806, 0.5674145817756653, 0.5583943128585815, 0.5003952980041504, 13.35756778717041, 0.994833767414093, 0.06262626498937607, 0.19211861491203308, 0.09229686111211777, 0.3310566246509552, 0.9982030391693115, 0.9131312966346741, 0.5728331804275513
11, 21, 29, 16Perc, first_last, 1.7060757875442505, 1.7777552604675293, 0.46245118975639343, 0.4456040859222412, 0.42536646127700806, 0.5674145817756653, 0.5583943128585815, 0.5003952980041504, 13.35756778717041, 0.994833767414093, 0.06262626498937607, 0.19211861491203308, 0.08963391184806824, 0.2926006317138672, 0.9995507597923279, 0.9191918969154358, 0.5738396644592285
11, 21, 12, 16Perc, new, 1.7060757875442505, 1.7777552604675293, 0.46245118975639343, 0.4456040859222412, 0.42536646127700806, 0.5674145817756653, 0.5583943128585815, 0.5003952980041504, 13.35756778717041, 0.994833767414093, 0.06262626498937607, 0.19211861491203308, 2.9056880474090576, 2.9220545291900635, 0.10691823810338974, 0.08888889104127884, 0.10246583819389343
11, 21, 12, fiveMovements, all, 1.7060757875442505, 1.7777552604675293, 0.46245118975639343, 0.4456040859222412, 0.42536646127700806, 0.47405508160591125, 0.5682802200317383, 0.90018630027771, 6.737173080444336, 0.9985755085945129, 0.31210190057754517, 0.10218837112188339, 0.11922196298837662, 1.4147487878799438, 0.9992877244949341, 0.7515923380851746, 0.2766779959201813
11, 21, 13, fiveMovements, first, 1.7060757875442505, 1.7777552604675293, 0.46245118975639343, 0.4456040859222412, 0.42536646127700806, 0.47405508160591125, 0.5682802200317383, 0.90018630027771, 6.737173080444336, 0.9985755085945129, 0.31210190057754517, 0.10218837112188339, 0.1136474609375, 0.9445638656616211, 0.9985755085945129, 0.7707006335258484, 0.19328023493289948
11, 21, 12, fiveMovements, last, 1.7060757875442505, 1.7777552604675293, 0.46245118975639343, 0.4456040859222412, 0.42536646127700806, 0.47405508160591125, 0.5682802200317383, 0.90018630027771, 6.737173080444336, 0.9985755085945129, 0.31210190057754517, 0.10218837112188339, 0.12117201089859009, 1.2592036724090576, 0.995726466178894, 0.7770700454711914, 0.2760980427265167
11, 21, 12, fiveMovements, first_last, 1.7060757875442505, 1.7777552604675293, 0.46245118975639343, 0.4456040859222412, 0.42536646127700806, 0.47405508160591125, 0.5682802200317383, 0.90018630027771, 6.737173080444336, 0.9985755085945129, 0.31210190057754517, 0.10218837112188339, 0.1210624948143959, 1.707439661026001, 0.9971510171890259, 0.6878980994224548, 0.2821296155452728
11, 21, 13, fiveMovements, new, 1.7060757875442505, 1.7777552604675293, 0.46245118975639343, 0.4456040859222412, 0.42536646127700806, 0.47405508160591125, 0.5682802200317383, 0.90018630027771, 6.737173080444336, 0.9985755085945129, 0.31210190057754517, 0.10218837112188339, 2.9788877964019775, 2.918516159057617, 0.35683760046958923, 0.3248407542705536, 0.10184039920568466
11, 21, 11, oneMovement, all, 1.7060757875442505, 1.7777552604675293, 0.46245118975639343, 0.4456040859222412, 0.42536646127700806, 0.9726775884628296, 0.5700974464416504, 1.1342207193374634, 1.1198424100875854, 1.0, 1.0, 0.0380064956843853, 0.30946430563926697, 0.10229415446519852, 0.9695122241973877, 1.0, 0.5605087876319885
11, 21, 11, oneMovement, first, 1.7060757875442505, 1.7777552604675293, 0.46245118975639343, 0.4456040859222412, 0.42536646127700806, 0.9726775884628296, 0.5700974464416504, 1.1342207193374634, 1.1198424100875854, 1.0, 1.0, 0.0380064956843853, 0.29517483711242676, 0.10257451236248016, 0.9817073345184326, 1.0, 0.5585756301879883
11, 21, 11, oneMovement, last, 1.7060757875442505, 1.7777552604675293, 0.46245118975639343, 0.4456040859222412, 0.42536646127700806, 0.9726775884628296, 0.5700974464416504, 1.1342207193374634, 1.1198424100875854, 1.0, 1.0, 0.0380064956843853, 0.24497777223587036, 0.10235043615102768, 0.9817073345184326, 1.0, 0.5580729842185974
11, 21, 11, oneMovement, first_last, 1.7060757875442505, 1.7777552604675293, 0.46245118975639343, 0.4456040859222412, 0.42536646127700806, 0.9726775884628296, 0.5700974464416504, 1.1342207193374634, 1.1198424100875854, 1.0, 1.0, 0.0380064956843853, 0.27787795662879944, 0.10163367539644241, 0.9817073345184326, 1.0, 0.5583049654960632
11, 21, 14, oneMovement, new, 1.7060757875442505, 1.7777552604675293, 0.46245118975639343, 0.4456040859222412, 0.42536646127700806, 0.9726775884628296, 0.5700974464416504, 1.1342207193374634, 1.1198424100875854, 1.0, 1.0, 0.0380064956843853, 4.194798469543457, 4.093806266784668, 1.0, 1.0, 0.0380064956843853
12, 30, 42, 83Perc, all, 1.681820034980774, 1.7633305788040161, 0.4705706536769867, 0.4491293430328369, 0.4320805072784424, 0.5735793709754944, 0.4875776469707489, 0.10014261305332184, 0.22362153232097626, 0.9960922002792358, 0.949822187423706, 0.6677018404006958, 0.0806291475892067, 0.12275620549917221, 0.9965313076972961, 0.9818253517150879, 0.6786627769470215
12, 30, 46, 83Perc, first, 1.681820034980774, 1.7633305788040161, 0.4705706536769867, 0.4491293430328369, 0.4320805072784424, 0.5735793709754944, 0.4875776469707489, 0.10014261305332184, 0.22362153232097626, 0.9960922002792358, 0.949822187423706, 0.6677018404006958, 0.09023436158895493, 0.12033344805240631, 0.9918331503868103, 0.982220470905304, 0.6772013306617737
12, 30, 31, 83Perc, last, 1.681820034980774, 1.7633305788040161, 0.4705706536769867, 0.4491293430328369, 0.4320805072784424, 0.5735793709754944, 0.4875776469707489, 0.10014261305332184, 0.22362153232097626, 0.9960922002792358, 0.949822187423706, 0.6677018404006958, 0.09612783789634705, 0.13620395958423615, 0.9916574954986572, 0.9770841598510742, 0.6861526966094971
12, 30, 30, 83Perc, first_last, 1.681820034980774, 1.7633305788040161, 0.4705706536769867, 0.4491293430328369, 0.4320805072784424, 0.5735793709754944, 0.4875776469707489, 0.10014261305332184, 0.22362153232097626, 0.9960922002792358, 0.949822187423706, 0.6677018404006958, 0.1023353785276413, 0.12096790224313736, 0.9905598163604736, 0.9834057688713074, 0.651260495185852
12, 30, 11, 83Perc, new, 1.681820034980774, 1.7633305788040161, 0.4705706536769867, 0.4491293430328369, 0.4320805072784424, 0.5735793709754944, 0.4875776469707489, 0.10014261305332184, 0.22362153232097626, 0.9960922002792358, 0.949822187423706, 0.6677018404006958, 2.8517067432403564, 2.852524518966675, 0.10660812258720398, 0.10825760662555695, 0.08494701981544495
12, 30, 31, 60Perc, all, 1.681820034980774, 1.7633305788040161, 0.4705706536769867, 0.4491293430328369, 0.4320805072784424, 0.5558648109436035, 0.5450281500816345, 0.0978563129901886, 0.2874627411365509, 0.9929865002632141, 0.929423451423645, 0.6422138810157776, 0.08925258368253708, 0.13858738541603088, 0.9937044382095337, 0.9766401648521423, 0.6870543956756592
12, 30, 43, 60Perc, first, 1.681820034980774, 1.7633305788040161, 0.4705706536769867, 0.4491293430328369, 0.4320805072784424, 0.5558648109436035, 0.5450281500816345, 0.0978563129901886, 0.2874627411365509, 0.9929865002632141, 0.929423451423645, 0.6422138810157776, 0.07885630428791046, 0.14452721178531647, 0.9938148856163025, 0.9696819186210632, 0.6893996000289917
12, 30, 47, 60Perc, last, 1.681820034980774, 1.7633305788040161, 0.4705706536769867, 0.4491293430328369, 0.4320805072784424, 0.5558648109436035, 0.5450281500816345, 0.0978563129901886, 0.2874627411365509, 0.9929865002632141, 0.929423451423645, 0.6422138810157776, 0.0793839693069458, 0.12347307056188583, 0.9941462278366089, 0.9751490950584412, 0.6807692050933838
12, 30, 32, 60Perc, first_last, 1.681820034980774, 1.7633305788040161, 0.4705706536769867, 0.4491293430328369, 0.4320805072784424, 0.5558648109436035, 0.5450281500816345, 0.0978563129901886, 0.2874627411365509, 0.9929865002632141, 0.929423451423645, 0.6422138810157776, 0.09771540760993958, 0.15087397396564484, 0.9916059374809265, 0.9711729884147644, 0.6820825338363647
12, 30, 11, 60Perc, new, 1.681820034980774, 1.7633305788040161, 0.4705706536769867, 0.4491293430328369, 0.4320805072784424, 0.5558648109436035, 0.5450281500816345, 0.0978563129901886, 0.2874627411365509, 0.9929865002632141, 0.929423451423645, 0.6422138810157776, 2.8595831394195557, 2.861919403076172, 0.10674840211868286, 0.11232604086399078, 0.09455909579992294
12, 30, 53, 30Perc, all, 1.681820034980774, 1.7633305788040161, 0.4705706536769867, 0.4491293430328369, 0.4320805072784424, 0.5429080724716187, 0.5573342442512512, 0.4733510911464691, 16.068185806274414, 0.9832820296287537, 0.153313547372818, 0.205348938703537, 0.06031612679362297, 0.09821527451276779, 0.9989001154899597, 0.9812067151069641, 0.6292015314102173
12, 30, 50, 30Perc, first, 1.681820034980774, 1.7633305788040161, 0.4705706536769867, 0.4491293430328369, 0.4320805072784424, 0.5429080724716187, 0.5573342442512512, 0.4733510911464691, 16.068185806274414, 0.9832820296287537, 0.153313547372818, 0.205348938703537, 0.06321410089731216, 0.11016497015953064, 0.9982402324676514, 0.975271999835968, 0.6321516633033752
12, 30, 63, 30Perc, last, 1.681820034980774, 1.7633305788040161, 0.4705706536769867, 0.4491293430328369, 0.4320805072784424, 0.5429080724716187, 0.5573342442512512, 0.4733510911464691, 16.068185806274414, 0.9832820296287537, 0.153313547372818, 0.205348938703537, 0.05857878550887108, 0.11465004086494446, 0.9978002905845642, 0.975271999835968, 0.6214634776115417
12, 30, 59, 30Perc, first_last, 1.681820034980774, 1.7633305788040161, 0.4705706536769867, 0.4491293430328369, 0.4320805072784424, 0.5429080724716187, 0.5573342442512512, 0.4733510911464691, 16.068185806274414, 0.9832820296287537, 0.153313547372818, 0.205348938703537, 0.05665716528892517, 0.11296705156564713, 0.9982402324676514, 0.9772502183914185, 0.6274120807647705
12, 30, 11, 30Perc, new, 1.681820034980774, 1.7633305788040161, 0.4705706536769867, 0.4491293430328369, 0.4320805072784424, 0.5429080724716187, 0.5573342442512512, 0.4733510911464691, 16.068185806274414, 0.9832820296287537, 0.153313547372818, 0.205348938703537, 2.877211093902588, 2.885024070739746, 0.10767707973718643, 0.0959446057677269, 0.10112685710191727
12, 30, 65, 16Perc, all, 1.681820034980774, 1.7633305788040161, 0.4705706536769867, 0.4491293430328369, 0.4320805072784424, 0.5575096011161804, 0.5510780811309814, 0.5117807984352112, 22.960895538330078, 0.9968553185462952, 0.05454545468091965, 0.19451864063739777, 0.06060114502906799, 0.17123247683048248, 0.9997754096984863, 0.9616161584854126, 0.5377617478370667
12, 30, 38, 16Perc, first, 1.681820034980774, 1.7633305788040161, 0.4705706536769867, 0.4491293430328369, 0.4320805072784424, 0.5575096011161804, 0.5510780811309814, 0.5117807984352112, 22.960895538330078, 0.9968553185462952, 0.05454545468091965, 0.19451864063739777, 0.08281276375055313, 0.2857620120048523, 0.9988769292831421, 0.9414141178131104, 0.5424069762229919
12, 30, 34, 16Perc, last, 1.681820034980774, 1.7633305788040161, 0.4705706536769867, 0.4491293430328369, 0.4320805072784424, 0.5575096011161804, 0.5510780811309814, 0.5117807984352112, 22.960895538330078, 0.9968553185462952, 0.05454545468091965, 0.19451864063739777, 0.08720927685499191, 0.2558147609233856, 0.9991015195846558, 0.9515151381492615, 0.5400069952011108
12, 30, 32, 16Perc, first_last, 1.681820034980774, 1.7633305788040161, 0.4705706536769867, 0.4491293430328369, 0.4320805072784424, 0.5575096011161804, 0.5510780811309814, 0.5117807984352112, 22.960895538330078, 0.9968553185462952, 0.05454545468091965, 0.19451864063739777, 0.09139230102300644, 0.2656169831752777, 0.9982030391693115, 0.9414141178131104, 0.5355939865112305
12, 30, 14, 16Perc, new, 1.681820034980774, 1.7633305788040161, 0.4705706536769867, 0.4491293430328369, 0.4320805072784424, 0.5575096011161804, 0.5510780811309814, 0.5117807984352112, 22.960895538330078, 0.9968553185462952, 0.05454545468091965, 0.19451864063739777, 2.8960511684417725, 2.895632028579712, 0.10579514503479004, 0.09898989647626877, 0.10246583819389343
12, 30, 25, fiveMovements, all, 1.681820034980774, 1.7633305788040161, 0.4705706536769867, 0.4491293430328369, 0.4320805072784424, 0.42408713698387146, 0.5690535306930542, 0.9315102696418762, 4.3968610763549805, 1.0, 0.3248407542705536, 0.08869471400976181, 0.10551424324512482, 0.20670457184314728, 0.9985755085945129, 0.9681528806686401, 0.17464429140090942
12, 30, 27, fiveMovements, first, 1.681820034980774, 1.7633305788040161, 0.4705706536769867, 0.4491293430328369, 0.4320805072784424, 0.42408713698387146, 0.5690535306930542, 0.9315102696418762, 4.3968610763549805, 1.0, 0.3248407542705536, 0.08869471400976181, 0.10246705263853073, 0.2100895643234253, 0.9992877244949341, 0.9681528806686401, 0.17607484757900238
12, 30, 25, fiveMovements, last, 1.681820034980774, 1.7633305788040161, 0.4705706536769867, 0.4491293430328369, 0.4320805072784424, 0.42408713698387146, 0.5690535306930542, 0.9315102696418762, 4.3968610763549805, 1.0, 0.3248407542705536, 0.08869471400976181, 0.10376280546188354, 0.1974714696407318, 0.9992877244949341, 0.9681528806686401, 0.17445097863674164
12, 30, 26, fiveMovements, first_last, 1.681820034980774, 1.7633305788040161, 0.4705706536769867, 0.4491293430328369, 0.4320805072784424, 0.42408713698387146, 0.5690535306930542, 0.9315102696418762, 4.3968610763549805, 1.0, 0.3248407542705536, 0.08869471400976181, 0.10304147005081177, 0.2455514818429947, 0.9985755085945129, 0.9617834687232971, 0.1694633513689041
12, 30, 20, fiveMovements, new, 1.681820034980774, 1.7633305788040161, 0.4705706536769867, 0.4491293430328369, 0.4320805072784424, 0.42408713698387146, 0.5690535306930542, 0.9315102696418762, 4.3968610763549805, 1.0, 0.3248407542705536, 0.08869471400976181, 2.5732779502868652, 2.554990768432617, 0.3539886176586151, 0.35031846165657043, 0.10184039920568466
12, 30, 11, oneMovement, all, 1.681820034980774, 1.7633305788040161, 0.4705706536769867, 0.4491293430328369, 0.4320805072784424, 0.9453551769256592, 0.56928551197052, 1.1441906690597534, 1.130017876625061, 1.0, 1.0, 0.0380064956843853, 0.28648340702056885, 0.10231105983257294, 0.9878048896789551, 1.0, 0.5646845102310181
12, 30, 11, oneMovement, first, 1.681820034980774, 1.7633305788040161, 0.4705706536769867, 0.4491293430328369, 0.4320805072784424, 0.9453551769256592, 0.56928551197052, 1.1441906690597534, 1.130017876625061, 1.0, 1.0, 0.0380064956843853, 0.23614734411239624, 0.10231183469295502, 0.9939024448394775, 1.0, 0.5649164915084839
12, 30, 11, oneMovement, last, 1.681820034980774, 1.7633305788040161, 0.4705706536769867, 0.4491293430328369, 0.4320805072784424, 0.9453551769256592, 0.56928551197052, 1.1441906690597534, 1.130017876625061, 1.0, 1.0, 0.0380064956843853, 0.25810903310775757, 0.10234083235263824, 0.9878048896789551, 1.0, 0.5646072030067444
12, 30, 11, oneMovement, first_last, 1.681820034980774, 1.7633305788040161, 0.4705706536769867, 0.4491293430328369, 0.4320805072784424, 0.9453551769256592, 0.56928551197052, 1.1441906690597534, 1.130017876625061, 1.0, 1.0, 0.0380064956843853, 0.216552272439003, 0.10240522027015686, 0.9939024448394775, 1.0, 0.5659990906715393
12, 30, 15, oneMovement, new, 1.681820034980774, 1.7633305788040161, 0.4705706536769867, 0.4491293430328369, 0.4320805072784424, 0.9453551769256592, 0.56928551197052, 1.1441906690597534, 1.130017876625061, 1.0, 1.0, 0.0380064956843853, 4.093824863433838, 3.996472120285034, 1.0, 1.0, 0.0380064956843853
13, 23, 34, 83Perc, all, 1.6992801427841187, 1.7635142803192139, 0.46343865990638733, 0.4436744451522827, 0.4264519512653351, 0.5982375741004944, 0.508586049079895, 0.1346586048603058, 0.31809258460998535, 0.9821295142173767, 0.9170288443565369, 0.635367214679718, 0.08337491750717163, 0.16380558907985687, 0.9942919611930847, 0.9640458226203918, 0.6799415349960327
13, 23, 39, 83Perc, first, 1.6992801427841187, 1.7635142803192139, 0.46343865990638733, 0.4436744451522827, 0.4264519512653351, 0.5982375741004944, 0.508586049079895, 0.1346586048603058, 0.31809258460998535, 0.9821295142173767, 0.9170288443565369, 0.635367214679718, 0.08420241624116898, 0.11966954916715622, 0.9948627948760986, 0.9838008880615234, 0.6819510459899902
13, 23, 36, 83Perc, last, 1.6992801427841187, 1.7635142803192139, 0.46343865990638733, 0.4436744451522827, 0.4264519512653351, 0.5982375741004944, 0.508586049079895, 0.1346586048603058, 0.31809258460998535, 0.9821295142173767, 0.9170288443565369, 0.635367214679718, 0.08449692279100418, 0.11932329833507538, 0.9945554137229919, 0.9810351729393005, 0.6865180730819702
13, 23, 46, 83Perc, first_last, 1.6992801427841187, 1.7635142803192139, 0.46343865990638733, 0.4436744451522827, 0.4264519512653351, 0.5982375741004944, 0.508586049079895, 0.1346586048603058, 0.31809258460998535, 0.9821295142173767, 0.9170288443565369, 0.635367214679718, 0.0890466645359993, 0.14483323693275452, 0.9917014241218567, 0.9715527296066284, 0.6737303733825684
13, 23, 11, 83Perc, new, 1.6992801427841187, 1.7635142803192139, 0.46343865990638733, 0.4436744451522827, 0.4264519512653351, 0.5982375741004944, 0.508586049079895, 0.1346586048603058, 0.31809258460998535, 0.9821295142173767, 0.9170288443565369, 0.635367214679718, 2.850752353668213, 2.8482751846313477, 0.10656421631574631, 0.10865270346403122, 0.08494701981544495
13, 23, 37, 60Perc, all, 1.6992801427841187, 1.7635142803192139, 0.46343865990638733, 0.4436744451522827, 0.4264519512653351, 0.5841451287269592, 0.5652908086776733, 0.10870107263326645, 0.31149303913116455, 0.9903910160064697, 0.9194831252098083, 0.6327391862869263, 0.08618427067995071, 0.10283292829990387, 0.9944223761558533, 0.987574577331543, 0.6827391982078552
13, 23, 37, 60Perc, first, 1.6992801427841187, 1.7635142803192139, 0.46343865990638733, 0.4436744451522827, 0.4264519512653351, 0.5841451287269592, 0.5652908086776733, 0.10870107263326645, 0.31149303913116455, 0.9903910160064697, 0.9194831252098083, 0.6327391862869263, 0.07945913821458817, 0.10382656008005142, 0.9953611493110657, 0.9845924377441406, 0.696435272693634
13, 23, 41, 60Perc, last, 1.6992801427841187, 1.7635142803192139, 0.46343865990638733, 0.4436744451522827, 0.4264519512653351, 0.5841451287269592, 0.5652908086776733, 0.10870107263326645, 0.31149303913116455, 0.9903910160064697, 0.9194831252098083, 0.6327391862869263, 0.07763297110795975, 0.11382951587438583, 0.9954164028167725, 0.9811133146286011, 0.6818011403083801
13, 23, 38, 60Perc, first_last, 1.6992801427841187, 1.7635142803192139, 0.46343865990638733, 0.4436744451522827, 0.4264519512653351, 0.5841451287269592, 0.5652908086776733, 0.10870107263326645, 0.31149303913116455, 0.9903910160064697, 0.9194831252098083, 0.6327391862869263, 0.0802127942442894, 0.111903116106987, 0.9956924915313721, 0.9801192879676819, 0.6867730021476746
13, 23, 11, 60Perc, new, 1.6992801427841187, 1.7635142803192139, 0.46343865990638733, 0.4436744451522827, 0.4264519512653351, 0.5841451287269592, 0.5652908086776733, 0.10870107263326645, 0.31149303913116455, 0.9903910160064697, 0.9194831252098083, 0.6327391862869263, 2.8589489459991455, 2.852418899536133, 0.10652749985456467, 0.11431411653757095, 0.09455909579992294
13, 23, 49, 30Perc, all, 1.6992801427841187, 1.7635142803192139, 0.46343865990638733, 0.4436744451522827, 0.4264519512653351, 0.5734930038452148, 0.5813705921173096, 0.4101257026195526, 14.904022216796875, 0.9877914786338806, 0.06627102196216583, 0.19635343551635742, 0.06092187389731407, 0.10578106343746185, 0.998350203037262, 0.9851632118225098, 0.648063063621521
13, 23, 40, 30Perc, first, 1.6992801427841187, 1.7635142803192139, 0.46343865990638733, 0.4436744451522827, 0.4264519512653351, 0.5734930038452148, 0.5813705921173096, 0.4101257026195526, 14.904022216796875, 0.9877914786338806, 0.06627102196216583, 0.19635343551635742, 0.0679612010717392, 0.1423315554857254, 0.998350203037262, 0.9703264236450195, 0.6424046158790588
13, 23, 57, 30Perc, last, 1.6992801427841187, 1.7635142803192139, 0.46343865990638733, 0.4436744451522827, 0.4264519512653351, 0.5734930038452148, 0.5813705921173096, 0.4101257026195526, 14.904022216796875, 0.9877914786338806, 0.06627102196216583, 0.19635343551635742, 0.060272231698036194, 0.108746238052845, 0.9980202317237854, 0.9831849932670593, 0.6324418187141418
13, 23, 40, 30Perc, first_last, 1.6992801427841187, 1.7635142803192139, 0.46343865990638733, 0.4436744451522827, 0.4264519512653351, 0.5734930038452148, 0.5813705921173096, 0.4101257026195526, 14.904022216796875, 0.9877914786338806, 0.06627102196216583, 0.19635343551635742, 0.06845511496067047, 0.13564296066761017, 0.9982402324676514, 0.9772502183914185, 0.635730504989624
13, 23, 11, 30Perc, new, 1.6992801427841187, 1.7635142803192139, 0.46343865990638733, 0.4436744451522827, 0.4264519512653351, 0.5734930038452148, 0.5813705921173096, 0.4101257026195526, 14.904022216796875, 0.9877914786338806, 0.06627102196216583, 0.19635343551635742, 2.875652551651001, 2.8804337978363037, 0.10657721012830734, 0.10583580285310745, 0.10112685710191727
13, 23, 41, 16Perc, all, 1.6992801427841187, 1.7635142803192139, 0.46343865990638733, 0.4436744451522827, 0.4264519512653351, 0.6112795472145081, 0.5725622177124023, 0.5501288175582886, 12.831801414489746, 0.9952830076217651, 0.038383837789297104, 0.17365385591983795, 0.07632360607385635, 0.2519639730453491, 0.9995507597923279, 0.9272727370262146, 0.559439480304718
13, 23, 50, 16Perc, first, 1.6992801427841187, 1.7635142803192139, 0.46343865990638733, 0.4436744451522827, 0.4264519512653351, 0.6112795472145081, 0.5725622177124023, 0.5501288175582886, 12.831801414489746, 0.9952830076217651, 0.038383837789297104, 0.17365385591983795, 0.06951764225959778, 0.20845164358615875, 0.9993261694908142, 0.9434343576431274, 0.5668718218803406
13, 23, 78, 16Perc, last, 1.6992801427841187, 1.7635142803192139, 0.46343865990638733, 0.4436744451522827, 0.4264519512653351, 0.6112795472145081, 0.5725622177124023, 0.5501288175582886, 12.831801414489746, 0.9952830076217651, 0.038383837789297104, 0.17365385591983795, 0.05156124010682106, 0.14040234684944153, 0.9993261694908142, 0.9696969985961914, 0.5576975345611572
13, 23, 73, 16Perc, first_last, 1.6992801427841187, 1.7635142803192139, 0.46343865990638733, 0.4436744451522827, 0.4264519512653351, 0.6112795472145081, 0.5725622177124023, 0.5501288175582886, 12.831801414489746, 0.9952830076217651, 0.038383837789297104, 0.17365385591983795, 0.054102588444948196, 0.12974558770656586, 0.9997754096984863, 0.9696969985961914, 0.5502651929855347
13, 23, 12, 16Perc, new, 1.6992801427841187, 1.7635142803192139, 0.46343865990638733, 0.4436744451522827, 0.4264519512653351, 0.6112795472145081, 0.5725622177124023, 0.5501288175582886, 12.831801414489746, 0.9952830076217651, 0.038383837789297104, 0.17365385591983795, 2.906860113143921, 2.9103076457977295, 0.10399820655584335, 0.11515151709318161, 0.10246583819389343
13, 23, 31, fiveMovements, all, 1.6992801427841187, 1.7635142803192139, 0.46343865990638733, 0.4436744451522827, 0.4264519512653351, 0.49711722135543823, 0.5872254967689514, 0.8197221159934998, 5.732929706573486, 1.0, 0.2675159275531769, 0.1057841032743454, 0.09784231334924698, 0.1607290506362915, 0.9985755085945129, 0.9808917045593262, 0.20124498009681702
13, 23, 33, fiveMovements, first, 1.6992801427841187, 1.7635142803192139, 0.46343865990638733, 0.4436744451522827, 0.4264519512653351, 0.49711722135543823, 0.5872254967689514, 0.8197221159934998, 5.732929706573486, 1.0, 0.2675159275531769, 0.1057841032743454, 0.09589790552854538, 0.15179936587810516, 0.9992877244949341, 0.9808917045593262, 0.20352613925933838
13, 23, 12, fiveMovements, last, 1.6992801427841187, 1.7635142803192139, 0.46343865990638733, 0.4436744451522827, 0.4264519512653351, 0.49711722135543823, 0.5872254967689514, 0.8197221159934998, 5.732929706573486, 1.0, 0.2675159275531769, 0.1057841032743454, 0.11381564289331436, 0.38807013630867004, 0.9971510171890259, 0.9171974658966064, 0.28321218490600586
13, 23, 29, fiveMovements, first_last, 1.6992801427841187, 1.7635142803192139, 0.46343865990638733, 0.4436744451522827, 0.4264519512653351, 0.49711722135543823, 0.5872254967689514, 0.8197221159934998, 5.732929706573486, 1.0, 0.2675159275531769, 0.1057841032743454, 0.09677893668413162, 0.13580764830112457, 1.0, 0.9808917045593262, 0.19621868431568146
13, 23, 17, fiveMovements, new, 1.6992801427841187, 1.7635142803192139, 0.46343865990638733, 0.4436744451522827, 0.4264519512653351, 0.49711722135543823, 0.5872254967689514, 0.8197221159934998, 5.732929706573486, 1.0, 0.2675159275531769, 0.1057841032743454, 2.693936586380005, 2.652475118637085, 0.3490028381347656, 0.3949044644832611, 0.10184039920568466
13, 23, 12, oneMovement, all, 1.6992801427841187, 1.7635142803192139, 0.46343865990638733, 0.4436744451522827, 0.4264519512653351, 0.9398906826972961, 0.5877281427383423, 1.121556043624878, 1.103890299797058, 1.0, 1.0, 0.0380064956843853, 0.10437478125095367, 0.1021512895822525, 1.0, 1.0, 0.5755490064620972
13, 23, 12, oneMovement, first, 1.6992801427841187, 1.7635142803192139, 0.46343865990638733, 0.4436744451522827, 0.4264519512653351, 0.9398906826972961, 0.5877281427383423, 1.121556043624878, 1.103890299797058, 1.0, 1.0, 0.0380064956843853, 0.10257330536842346, 0.10209105163812637, 1.0, 1.0, 0.5788354277610779
13, 23, 12, oneMovement, last, 1.6992801427841187, 1.7635142803192139, 0.46343865990638733, 0.4436744451522827, 0.4264519512653351, 0.9398906826972961, 0.5877281427383423, 1.121556043624878, 1.103890299797058, 1.0, 1.0, 0.0380064956843853, 0.10973404347896576, 0.10240603238344193, 1.0, 1.0, 0.5771728754043579
13, 23, 13, oneMovement, first_last, 1.6992801427841187, 1.7635142803192139, 0.46343865990638733, 0.4436744451522827, 0.4264519512653351, 0.9398906826972961, 0.5877281427383423, 1.121556043624878, 1.103890299797058, 1.0, 1.0, 0.0380064956843853, 0.10228072106838226, 0.10282467305660248, 1.0, 1.0, 0.5553278923034668
13, 23, 17, oneMovement, new, 1.6992801427841187, 1.7635142803192139, 0.46343865990638733, 0.4436744451522827, 0.4264519512653351, 0.9398906826972961, 0.5877281427383423, 1.121556043624878, 1.103890299797058, 1.0, 1.0, 0.0380064956843853, 4.0032758712768555, 3.9128971099853516, 1.0, 1.0, 0.0380064956843853
14, 32, 24, 83Perc, all, 1.6821719408035278, 1.8008815050125122, 0.4694945216178894, 0.44069650769233704, 0.42592790722846985, 0.6166917085647583, 0.5115089416503906, 0.11285006999969482, 0.2727065086364746, 0.988979160785675, 0.935203492641449, 0.6638655662536621, 0.10654590278863907, 0.1855616271495819, 0.990911066532135, 0.9624654054641724, 0.6846912503242493
14, 32, 29, 83Perc, first, 1.6821719408035278, 1.8008815050125122, 0.4694945216178894, 0.44069650769233704, 0.42592790722846985, 0.6166917085647583, 0.5115089416503906, 0.11285006999969482, 0.2727065086364746, 0.988979160785675, 0.935203492641449, 0.6638655662536621, 0.09204275161027908, 0.14451536536216736, 0.9943358898162842, 0.973528265953064, 0.7009499669075012
14, 32, 29, 83Perc, last, 1.6821719408035278, 1.8008815050125122, 0.4694945216178894, 0.44069650769233704, 0.42592790722846985, 0.6166917085647583, 0.5115089416503906, 0.11285006999969482, 0.2727065086364746, 0.988979160785675, 0.935203492641449, 0.6638655662536621, 0.10153504461050034, 0.13432489335536957, 0.9899890422821045, 0.9751086235046387, 0.6817683577537537
14, 32, 42, 83Perc, first_last, 1.6821719408035278, 1.8008815050125122, 0.4694945216178894, 0.44069650769233704, 0.42592790722846985, 0.6166917085647583, 0.5115089416503906, 0.11285006999969482, 0.2727065086364746, 0.988979160785675, 0.935203492641449, 0.6638655662536621, 0.08753436803817749, 0.13100434839725494, 0.9920526742935181, 0.9747135639190674, 0.6717208623886108
14, 32, 11, 83Perc, new, 1.6821719408035278, 1.8008815050125122, 0.4694945216178894, 0.44069650769233704, 0.42592790722846985, 0.6166917085647583, 0.5115089416503906, 0.11285006999969482, 0.2727065086364746, 0.988979160785675, 0.935203492641449, 0.6638655662536621, 2.8520755767822266, 2.8604094982147217, 0.1076619103550911, 0.09877518564462662, 0.08494701981544495
14, 32, 38, 60Perc, all, 1.6821719408035278, 1.8008815050125122, 0.4694945216178894, 0.44069650769233704, 0.42592790722846985, 0.6033300161361694, 0.5687617063522339, 0.11333268880844116, 0.2715519964694977, 0.9863595962524414, 0.9304174780845642, 0.640056312084198, 0.08551811426877975, 0.1362457573413849, 0.9929865002632141, 0.9756461381912231, 0.6991557478904724
14, 32, 37, 60Perc, first, 1.6821719408035278, 1.8008815050125122, 0.4694945216178894, 0.44069650769233704, 0.42592790722846985, 0.6033300161361694, 0.5687617063522339, 0.11333268880844116, 0.2715519964694977, 0.9863595962524414, 0.9304174780845642, 0.640056312084198, 0.09461402148008347, 0.11385570466518402, 0.9917715787887573, 0.9835984110832214, 0.6886491775512695
14, 32, 47, 60Perc, last, 1.6821719408035278, 1.8008815050125122, 0.4694945216178894, 0.44069650769233704, 0.42592790722846985, 0.6033300161361694, 0.5687617063522339, 0.11333268880844116, 0.2715519964694977, 0.9863595962524414, 0.9304174780845642, 0.640056312084198, 0.07394050806760788, 0.10452365130186081, 0.9951402544975281, 0.9850894808769226, 0.7017823457717896
14, 32, 29, 60Perc, first_last, 1.6821719408035278, 1.8008815050125122, 0.4694945216178894, 0.44069650769233704, 0.42592790722846985, 0.6033300161361694, 0.5687617063522339, 0.11333268880844116, 0.2715519964694977, 0.9863595962524414, 0.9304174780845642, 0.640056312084198, 0.09401120245456696, 0.12048140168190002, 0.9939805865287781, 0.9840954542160034, 0.6808630228042603
14, 32, 11, 60Perc, new, 1.6821719408035278, 1.8008815050125122, 0.4694945216178894, 0.44069650769233704, 0.42592790722846985, 0.6033300161361694, 0.5687617063522339, 0.11333268880844116, 0.2715519964694977, 0.9863595962524414, 0.9304174780845642, 0.640056312084198, 2.860957622528076, 2.860403537750244, 0.10724541544914246, 0.10785288363695145, 0.09455909579992294
14, 32, 52, 30Perc, all, 1.6821719408035278, 1.8008815050125122, 0.4694945216178894, 0.44069650769233704, 0.42592790722846985, 0.5950707793235779, 0.5909948348999023, 0.4334956705570221, 14.388031959533691, 0.9817422032356262, 0.05242334306240082, 0.2751849889755249, 0.058652836829423904, 0.09629230946302414, 0.9991201162338257, 0.9851632118225098, 0.6437103748321533
14, 32, 44, 30Perc, first, 1.6821719408035278, 1.8008815050125122, 0.4694945216178894, 0.44069650769233704, 0.42592790722846985, 0.5950707793235779, 0.5909948348999023, 0.4334956705570221, 14.388031959533691, 0.9817422032356262, 0.05242334306240082, 0.2751849889755249, 0.0653769001364708, 0.17350490391254425, 0.9982402324676514, 0.9574678540229797, 0.6454030871391296
14, 32, 58, 30Perc, last, 1.6821719408035278, 1.8008815050125122, 0.4694945216178894, 0.44069650769233704, 0.42592790722846985, 0.5950707793235779, 0.5909948348999023, 0.4334956705570221, 14.388031959533691, 0.9817422032356262, 0.05242334306240082, 0.2751849889755249, 0.06415055692195892, 0.14567802846431732, 0.9965904355049133, 0.9653807878494263, 0.63689124584198
14, 32, 54, 30Perc, first_last, 1.6821719408035278, 1.8008815050125122, 0.4694945216178894, 0.44069650769233704, 0.42592790722846985, 0.5950707793235779, 0.5909948348999023, 0.4334956705570221, 14.388031959533691, 0.9817422032356262, 0.05242334306240082, 0.2751849889755249, 0.05786207318305969, 0.09888436645269394, 0.9980202317237854, 0.9821958541870117, 0.6445325613021851
14, 32, 11, 30Perc, new, 1.6821719408035278, 1.8008815050125122, 0.4694945216178894, 0.44069650769233704, 0.42592790722846985, 0.5950707793235779, 0.5909948348999023, 0.4334956705570221, 14.388031959533691, 0.9817422032356262, 0.05242334306240082, 0.2751849889755249, 2.8810629844665527, 2.863309144973755, 0.103937529027462, 0.12957467138767242, 0.10112685710191727
14, 32, 77, 16Perc, all, 1.6821719408035278, 1.8008815050125122, 0.4694945216178894, 0.44069650769233704, 0.42592790722846985, 0.5957145690917969, 0.589401125907898, 0.579421877861023, 11.999024391174316, 0.984950602054596, 0.07070706784725189, 0.2568420171737671, 0.055132556706666946, 0.08217042684555054, 0.9993261694908142, 0.9898989796638489, 0.5775558352470398
14, 32, 47, 16Perc, first, 1.6821719408035278, 1.8008815050125122, 0.4694945216178894, 0.44069650769233704, 0.42592790722846985, 0.5957145690917969, 0.589401125907898, 0.579421877861023, 11.999024391174316, 0.984950602054596, 0.07070706784725189, 0.2568420171737671, 0.0743497684597969, 0.1680612713098526, 0.9995507597923279, 0.9616161584854126, 0.5815042853355408
14, 32, 73, 16Perc, last, 1.6821719408035278, 1.8008815050125122, 0.4694945216178894, 0.44069650769233704, 0.42592790722846985, 0.5957145690917969, 0.589401125907898, 0.579421877861023, 11.999024391174316, 0.984950602054596, 0.07070706784725189, 0.2568420171737671, 0.05636818706989288, 0.09357018768787384, 0.9995507597923279, 0.9858585596084595, 0.5841752886772156
14, 32, 48, 16Perc, first_last, 1.6821719408035278, 1.8008815050125122, 0.4694945216178894, 0.44069650769233704, 0.42592790722846985, 0.5957145690917969, 0.589401125907898, 0.579421877861023, 11.999024391174316, 0.984950602054596, 0.07070706784725189, 0.2568420171737671, 0.07362682372331619, 0.14745798707008362, 0.9995507597923279, 0.9717171788215637, 0.5775945782661438
14, 32, 11, 16Perc, new, 1.6821719408035278, 1.8008815050125122, 0.4694945216178894, 0.44069650769233704, 0.42592790722846985, 0.5957145690917969, 0.589401125907898, 0.579421877861023, 11.999024391174316, 0.984950602054596, 0.07070706784725189, 0.2568420171737671, 2.919464111328125, 2.9218530654907227, 0.10624438524246216, 0.09494949132204056, 0.10246583819389343
14, 32, 12, fiveMovements, all, 1.6821719408035278, 1.8008815050125122, 0.4694945216178894, 0.44069650769233704, 0.42592790722846985, 0.5118513703346252, 0.600719153881073, 0.7795101404190063, 7.851153373718262, 1.0, 0.2675159275531769, 0.12028302252292633, 0.12463100999593735, 1.5345689058303833, 0.9928774833679199, 0.7197452187538147, 0.21469996869564056
14, 32, 37, fiveMovements, first, 1.6821719408035278, 1.8008815050125122, 0.4694945216178894, 0.44069650769233704, 0.42592790722846985, 0.5118513703346252, 0.600719153881073, 0.7795101404190063, 7.851153373718262, 1.0, 0.2675159275531769, 0.12028302252292633, 0.09877892583608627, 0.17802150547504425, 0.9985755085945129, 0.9745222926139832, 0.17456696927547455
14, 32, 30, fiveMovements, last, 1.6821719408035278, 1.8008815050125122, 0.4694945216178894, 0.44069650769233704, 0.42592790722846985, 0.5118513703346252, 0.600719153881073, 0.7795101404190063, 7.851153373718262, 1.0, 0.2675159275531769, 0.12028302252292633, 0.10015025734901428, 0.1601128876209259, 1.0, 0.9745222926139832, 0.17004330456256866
14, 32, 12, fiveMovements, first_last, 1.6821719408035278, 1.8008815050125122, 0.4694945216178894, 0.44069650769233704, 0.42592790722846985, 0.5118513703346252, 0.600719153881073, 0.7795101404190063, 7.851153373718262, 1.0, 0.2675159275531769, 0.12028302252292633, 0.12489700317382812, 2.4812824726104736, 0.9928774833679199, 0.6305732727050781, 0.21381069719791412
14, 32, 11, fiveMovements, new, 1.6821719408035278, 1.8008815050125122, 0.4694945216178894, 0.44069650769233704, 0.42592790722846985, 0.5118513703346252, 0.600719153881073, 0.7795101404190063, 7.851153373718262, 1.0, 0.2675159275531769, 0.12028302252292633, 3.1753034591674805, 3.0954787731170654, 0.19301994144916534, 0.19745223224163055, 0.051345501095056534
14, 32, 16, oneMovement, all, 1.6821719408035278, 1.8008815050125122, 0.4694945216178894, 0.44069650769233704, 0.42592790722846985, 0.9398906826972961, 0.5997912287712097, 1.1123650074005127, 1.0919349193572998, 1.0, 1.0, 0.0380064956843853, 0.1106586679816246, 0.10785353928804398, 1.0, 1.0, 0.4869316518306732
14, 32, 16, oneMovement, first, 1.6821719408035278, 1.8008815050125122, 0.4694945216178894, 0.44069650769233704, 0.42592790722846985, 0.9398906826972961, 0.5997912287712097, 1.1123650074005127, 1.0919349193572998, 1.0, 1.0, 0.0380064956843853, 0.11520601809024811, 0.10747765004634857, 1.0, 1.0, 0.47258737683296204
14, 32, 16, oneMovement, last, 1.6821719408035278, 1.8008815050125122, 0.4694945216178894, 0.44069650769233704, 0.42592790722846985, 0.9398906826972961, 0.5997912287712097, 1.1123650074005127, 1.0919349193572998, 1.0, 1.0, 0.0380064956843853, 0.13778534531593323, 0.10789959132671356, 1.0, 1.0, 0.48476648330688477
14, 32, 16, oneMovement, first_last, 1.6821719408035278, 1.8008815050125122, 0.4694945216178894, 0.44069650769233704, 0.42592790722846985, 0.9398906826972961, 0.5997912287712097, 1.1123650074005127, 1.0919349193572998, 1.0, 1.0, 0.0380064956843853, 0.11398611962795258, 0.10764508694410324, 1.0, 1.0, 0.4908366799354553
14, 32, 18, oneMovement, new, 1.6821719408035278, 1.8008815050125122, 0.4694945216178894, 0.44069650769233704, 0.42592790722846985, 0.9398906826972961, 0.5997912287712097, 1.1123650074005127, 1.0919349193572998, 1.0, 1.0, 0.0380064956843853, 3.9204885959625244, 3.8335564136505127, 1.0, 1.0, 0.0380064956843853
15, 29, 32, 83Perc, all, 1.6821942329406738, 1.7972856760025024, 0.47030264139175415, 0.43808966875076294, 0.4307330250740051, 0.594483494758606, 0.4968944191932678, 0.09843191504478455, 0.2626270055770874, 0.9935016632080078, 0.9375740885734558, 0.6388381719589233, 0.10069392621517181, 0.14092089235782623, 0.9901207685470581, 0.9766890406608582, 0.6808549761772156
15, 29, 33, 83Perc, first, 1.6821942329406738, 1.7972856760025024, 0.47030264139175415, 0.43808966875076294, 0.4307330250740051, 0.594483494758606, 0.4968944191932678, 0.09843191504478455, 0.2626270055770874, 0.9935016632080078, 0.9375740885734558, 0.6388381719589233, 0.0922955870628357, 0.14884337782859802, 0.9918770790100098, 0.9695772528648376, 0.6865180730819702
15, 29, 36, 83Perc, last, 1.6821942329406738, 1.7972856760025024, 0.47030264139175415, 0.43808966875076294, 0.4307330250740051, 0.594483494758606, 0.4968944191932678, 0.09843191504478455, 0.2626270055770874, 0.9935016632080078, 0.9375740885734558, 0.6388381719589233, 0.08734060078859329, 0.11601486057043076, 0.993589460849762, 0.9838008880615234, 0.6554622054100037
15, 29, 34, 83Perc, first_last, 1.6821942329406738, 1.7972856760025024, 0.47030264139175415, 0.43808966875076294, 0.4307330250740051, 0.594483494758606, 0.4968944191932678, 0.09843191504478455, 0.2626270055770874, 0.9935016632080078, 0.9375740885734558, 0.6388381719589233, 0.0919579491019249, 0.11466968804597855, 0.9929747581481934, 0.9830106496810913, 0.6693459749221802
15, 29, 11, 83Perc, new, 1.6821942329406738, 1.7972856760025024, 0.47030264139175415, 0.43808966875076294, 0.4307330250740051, 0.594483494758606, 0.4968944191932678, 0.09843191504478455, 0.2626270055770874, 0.9935016632080078, 0.9375740885734558, 0.6388381719589233, 2.8544890880584717, 2.842589855194092, 0.10546652227640152, 0.11853022873401642, 0.08494701981544495
15, 29, 50, 60Perc, all, 1.6821942329406738, 1.7972856760025024, 0.47030264139175415, 0.43808966875076294, 0.4307330250740051, 0.585387647151947, 0.5452157855033875, 0.0750119760632515, 0.24018147587776184, 0.9985089302062988, 0.9403578639030457, 0.6433395743370056, 0.06946351379156113, 0.1243681088089943, 0.9964104294776917, 0.9801192879676819, 0.6984990835189819
15, 29, 36, 60Perc, first, 1.6821942329406738, 1.7972856760025024, 0.47030264139175415, 0.43808966875076294, 0.4307330250740051, 0.585387647151947, 0.5452157855033875, 0.0750119760632515, 0.24018147587776184, 0.9985089302062988, 0.9403578639030457, 0.6433395743370056, 0.08576531708240509, 0.1111319288611412, 0.9936492443084717, 0.9855864644050598, 0.6866791844367981
15, 29, 44, 60Perc, last, 1.6821942329406738, 1.7972856760025024, 0.47030264139175415, 0.43808966875076294, 0.4307330250740051, 0.585387647151947, 0.5452157855033875, 0.0750119760632515, 0.24018147587776184, 0.9985089302062988, 0.9403578639030457, 0.6433395743370056, 0.07932622730731964, 0.09563650190830231, 0.9948089122772217, 0.9885686039924622, 0.6847091913223267
15, 29, 42, 60Perc, first_last, 1.6821942329406738, 1.7972856760025024, 0.47030264139175415, 0.43808966875076294, 0.4307330250740051, 0.585387647151947, 0.5452157855033875, 0.0750119760632515, 0.24018147587776184, 0.9985089302062988, 0.9403578639030457, 0.6433395743370056, 0.08784381300210953, 0.1469201296567917, 0.9906671047210693, 0.9696819186210632, 0.6655722260475159
15, 29, 11, 60Perc, new, 1.6821942329406738, 1.7972856760025024, 0.47030264139175415, 0.43808966875076294, 0.4307330250740051, 0.585387647151947, 0.5452157855033875, 0.0750119760632515, 0.24018147587776184, 0.9985089302062988, 0.9403578639030457, 0.6433395743370056, 2.86114239692688, 2.862665891647339, 0.10713496804237366, 0.10884691774845123, 0.09455909579992294
15, 29, 52, 30Perc, all, 1.6821942329406738, 1.7972856760025024, 0.47030264139175415, 0.43808966875076294, 0.4307330250740051, 0.5617143511772156, 0.571262776851654, 0.3911777138710022, 14.21315860748291, 0.9886713624000549, 0.06528189778327942, 0.2774096727371216, 0.06046212092041969, 0.1631508618593216, 0.9980202317237854, 0.9564787149429321, 0.6478695869445801
15, 29, 48, 30Perc, first, 1.6821942329406738, 1.7972856760025024, 0.47030264139175415, 0.43808966875076294, 0.4307330250740051, 0.5617143511772156, 0.571262776851654, 0.3911777138710022, 14.21315860748291, 0.9886713624000549, 0.06528189778327942, 0.2774096727371216, 0.064975306391716, 0.12191063910722733, 0.9982402324676514, 0.9802176356315613, 0.6444358229637146
15, 29, 67, 30Perc, last, 1.6821942329406738, 1.7972856760025024, 0.47030264139175415, 0.43808966875076294, 0.4307330250740051, 0.5617143511772156, 0.571262776851654, 0.3911777138710022, 14.21315860748291, 0.9886713624000549, 0.06528189778327942, 0.2774096727371216, 0.05226810649037361, 0.08384757488965988, 0.9984601736068726, 0.9901087880134583, 0.6421144008636475
15, 29, 61, 30Perc, first_last, 1.6821942329406738, 1.7972856760025024, 0.47030264139175415, 0.43808966875076294, 0.4307330250740051, 0.5617143511772156, 0.571262776851654, 0.3911777138710022, 14.21315860748291, 0.9886713624000549, 0.06528189778327942, 0.2774096727371216, 0.055179763585329056, 0.09420939534902573, 0.9989001154899597, 0.9812067151069641, 0.6450645923614502
15, 29, 11, 30Perc, new, 1.6821942329406738, 1.7972856760025024, 0.47030264139175415, 0.43808966875076294, 0.4307330250740051, 0.5617143511772156, 0.571262776851654, 0.3911777138710022, 14.21315860748291, 0.9886713624000549, 0.06528189778327942, 0.2774096727371216, 2.879305362701416, 2.876828908920288, 0.10635723918676376, 0.10781404376029968, 0.10112685710191727
15, 29, 33, 16Perc, all, 1.6821942329406738, 1.7972856760025024, 0.47030264139175415, 0.43808966875076294, 0.4307330250740051, 0.5613502860069275, 0.5702783465385437, 0.5394337773323059, 12.53697395324707, 0.991689145565033, 0.06666667014360428, 0.19068633019924164, 0.08913888782262802, 0.21289774775505066, 0.9991015195846558, 0.9474747180938721, 0.5655943751335144
15, 29, 36, 16Perc, first, 1.6821942329406738, 1.7972856760025024, 0.47030264139175415, 0.43808966875076294, 0.4307330250740051, 0.5613502860069275, 0.5702783465385437, 0.5394337773323059, 12.53697395324707, 0.991689145565033, 0.06666667014360428, 0.19068633019924164, 0.08578180521726608, 0.2031887173652649, 0.9986522793769836, 0.9555555582046509, 0.5680331587791443
15, 29, 42, 16Perc, last, 1.6821942329406738, 1.7972856760025024, 0.47030264139175415, 0.43808966875076294, 0.4307330250740051, 0.5613502860069275, 0.5702783465385437, 0.5394337773323059, 12.53697395324707, 0.991689145565033, 0.06666667014360428, 0.19068633019924164, 0.07975688576698303, 0.21335703134536743, 0.9995507597923279, 0.9555555582046509, 0.563387930393219
15, 29, 49, 16Perc, first_last, 1.6821942329406738, 1.7972856760025024, 0.47030264139175415, 0.43808966875076294, 0.4307330250740051, 0.5613502860069275, 0.5702783465385437, 0.5394337773323059, 12.53697395324707, 0.991689145565033, 0.06666667014360428, 0.19068633019924164, 0.07285606116056442, 0.16555888950824738, 0.9997754096984863, 0.9717171788215637, 0.5736073851585388
15, 29, 12, 16Perc, new, 1.6821942329406738, 1.7972856760025024, 0.47030264139175415, 0.43808966875076294, 0.4307330250740051, 0.5613502860069275, 0.5702783465385437, 0.5394337773323059, 12.53697395324707, 0.991689145565033, 0.06666667014360428, 0.19068633019924164, 2.910250186920166, 2.909738540649414, 0.10691823810338974, 0.08888889104127884, 0.06677505373954773
15, 29, 39, fiveMovements, all, 1.6821942329406738, 1.7972856760025024, 0.47030264139175415, 0.43808966875076294, 0.4307330250740051, 0.454196035861969, 0.5772115588188171, 0.7434656023979187, 4.054445743560791, 1.0, 0.41401273012161255, 0.0959635004401207, 0.09645342826843262, 0.15488794445991516, 1.0, 0.993630588054657, 0.1823383867740631
15, 29, 37, fiveMovements, first, 1.6821942329406738, 1.7972856760025024, 0.47030264139175415, 0.43808966875076294, 0.4307330250740051, 0.454196035861969, 0.5772115588188171, 0.7434656023979187, 4.054445743560791, 1.0, 0.41401273012161255, 0.0959635004401207, 0.09784765541553497, 0.16310779750347137, 1.0, 0.993630588054657, 0.18299567699432373
15, 29, 36, fiveMovements, last, 1.6821942329406738, 1.7972856760025024, 0.47030264139175415, 0.43808966875076294, 0.4307330250740051, 0.454196035861969, 0.5772115588188171, 0.7434656023979187, 4.054445743560791, 1.0, 0.41401273012161255, 0.0959635004401207, 0.09716834872961044, 0.15891923010349274, 1.0, 0.993630588054657, 0.18434889614582062
15, 29, 42, fiveMovements, first_last, 1.6821942329406738, 1.7972856760025024, 0.47030264139175415, 0.43808966875076294, 0.4307330250740051, 0.454196035861969, 0.5772115588188171, 0.7434656023979187, 4.054445743560791, 1.0, 0.41401273012161255, 0.0959635004401207, 0.09417539834976196, 0.1540832817554474, 1.0, 0.993630588054657, 0.18446488678455353
15, 29, 20, fiveMovements, new, 1.6821942329406738, 1.7972856760025024, 0.47030264139175415, 0.43808966875076294, 0.4307330250740051, 0.454196035861969, 0.5772115588188171, 0.7434656023979187, 4.054445743560791, 1.0, 0.41401273012161255, 0.0959635004401207, 2.567971706390381, 2.5529286861419678, 0.3582621216773987, 0.31210190057754517, 0.10184039920568466
15, 29, 11, oneMovement, all, 1.6821942329406738, 1.7972856760025024, 0.47030264139175415, 0.43808966875076294, 0.4307330250740051, 0.9890710115432739, 0.5776755213737488, 1.1562076807022095, 1.1465418338775635, 1.0, 1.0, 0.0380064956843853, 0.16513831913471222, 0.10136574506759644, 1.0, 1.0, 0.5763996243476868
15, 29, 11, oneMovement, first, 1.6821942329406738, 1.7972856760025024, 0.47030264139175415, 0.43808966875076294, 0.4307330250740051, 0.9890710115432739, 0.5776755213737488, 1.1562076807022095, 1.1465418338775635, 1.0, 1.0, 0.0380064956843853, 0.20601972937583923, 0.10134698450565338, 1.0, 1.0, 0.5765156149864197
15, 29, 11, oneMovement, last, 1.6821942329406738, 1.7972856760025024, 0.47030264139175415, 0.43808966875076294, 0.4307330250740051, 0.9890710115432739, 0.5776755213737488, 1.1562076807022095, 1.1465418338775635, 1.0, 1.0, 0.0380064956843853, 0.2448662966489792, 0.1012098416686058, 0.9878048896789551, 1.0, 0.5765156149864197
15, 29, 11, oneMovement, first_last, 1.6821942329406738, 1.7972856760025024, 0.47030264139175415, 0.43808966875076294, 0.4307330250740051, 0.9890710115432739, 0.5776755213737488, 1.1562076807022095, 1.1465418338775635, 1.0, 1.0, 0.0380064956843853, 0.2457023411989212, 0.10124890506267548, 1.0, 1.0, 0.5763609409332275
15, 29, 15, oneMovement, new, 1.6821942329406738, 1.7972856760025024, 0.47030264139175415, 0.43808966875076294, 0.4307330250740051, 0.9890710115432739, 0.5776755213737488, 1.1562076807022095, 1.1465418338775635, 1.0, 1.0, 0.0380064956843853, 4.095921039581299, 3.998349666595459, 1.0, 1.0, 0.0380064956843853
16, 40, 35, 83Perc, all, 1.669860601425171, 1.7360800504684448, 0.47351354360580444, 0.4547326862812042, 0.4368669092655182, 0.6113174557685852, 0.5126050710678101, 0.09277964383363724, 0.20409926772117615, 0.9912184476852417, 0.9450809955596924, 0.5940811038017273, 0.08680026978254318, 0.1742904782295227, 0.9944236874580383, 0.9628605246543884, 0.6951041221618652
16, 40, 27, 83Perc, first, 1.669860601425171, 1.7360800504684448, 0.47351354360580444, 0.4547326862812042, 0.4368669092655182, 0.6113174557685852, 0.5126050710678101, 0.09277964383363724, 0.20409926772117615, 0.9912184476852417, 0.9450809955596924, 0.5940811038017273, 0.10619044303894043, 0.1509900540113449, 0.9911745190620422, 0.9695772528648376, 0.6993058323860168
16, 40, 31, 83Perc, last, 1.669860601425171, 1.7360800504684448, 0.47351354360580444, 0.4547326862812042, 0.4368669092655182, 0.6113174557685852, 0.5126050710678101, 0.09277964383363724, 0.20409926772117615, 0.9912184476852417, 0.9450809955596924, 0.5940811038017273, 0.10018609464168549, 0.1815887838602066, 0.9899890422821045, 0.9573290944099426, 0.6960175633430481
16, 40, 33, 83Perc, first_last, 1.669860601425171, 1.7360800504684448, 0.47351354360580444, 0.4547326862812042, 0.4368669092655182, 0.6113174557685852, 0.5126050710678101, 0.09277964383363724, 0.20409926772117615, 0.9912184476852417, 0.9450809955596924, 0.5940811038017273, 0.09381288290023804, 0.13512299954891205, 0.9921844005584717, 0.9770841598510742, 0.6991231441497803
16, 40, 11, 83Perc, new, 1.669860601425171, 1.7360800504684448, 0.47351354360580444, 0.4547326862812042, 0.4368669092655182, 0.6113174557685852, 0.5126050710678101, 0.09277964383363724, 0.20409926772117615, 0.9912184476852417, 0.9450809955596924, 0.5940811038017273, 2.8544743061065674, 2.8515114784240723, 0.10709110647439957, 0.10391149669885635, 0.08494701981544495
16, 40, 38, 60Perc, all, 1.669860601425171, 1.7360800504684448, 0.47351354360580444, 0.4547326862812042, 0.4368669092655182, 0.5916997790336609, 0.550562858581543, 0.34100914001464844, 8.168184280395508, 0.97525954246521, 0.1948310136795044, 0.20656660199165344, 0.07963994145393372, 0.1228654682636261, 0.9954164028167725, 0.9776341915130615, 0.7069418430328369
16, 40, 44, 60Perc, first, 1.669860601425171, 1.7360800504684448, 0.47351354360580444, 0.4547326862812042, 0.4368669092655182, 0.5916997790336609, 0.550562858581543, 0.34100914001464844, 8.168184280395508, 0.97525954246521, 0.1948310136795044, 0.20656660199165344, 0.0840013325214386, 0.09927967935800552, 0.9936492443084717, 0.9855864644050598, 0.7109755873680115
16, 40, 44, 60Perc, last, 1.669860601425171, 1.7360800504684448, 0.47351354360580444, 0.4547326862812042, 0.4368669092655182, 0.5916997790336609, 0.550562858581543, 0.34100914001464844, 8.168184280395508, 0.97525954246521, 0.1948310136795044, 0.20656660199165344, 0.08205482363700867, 0.11777786165475845, 0.9946984648704529, 0.9796222448348999, 0.7196998000144958
16, 40, 42, 60Perc, first_last, 1.669860601425171, 1.7360800504684448, 0.47351354360580444, 0.4547326862812042, 0.4368669092655182, 0.5916997790336609, 0.550562858581543, 0.34100914001464844, 8.168184280395508, 0.97525954246521, 0.1948310136795044, 0.20656660199165344, 0.08386779576539993, 0.1104971170425415, 0.9940910339355469, 0.9816103577613831, 0.7197936177253723
16, 40, 11, 60Perc, new, 1.669860601425171, 1.7360800504684448, 0.47351354360580444, 0.4547326862812042, 0.4368669092655182, 0.5916997790336609, 0.550562858581543, 0.34100914001464844, 8.168184280395508, 0.97525954246521, 0.1948310136795044, 0.20656660199165344, 2.862337589263916, 2.861849308013916, 0.10774243623018265, 0.10337971895933151, 0.09455909579992294
16, 40, 84, 30Perc, all, 1.669860601425171, 1.7360800504684448, 0.47351354360580444, 0.4547326862812042, 0.4368669092655182, 0.566663384437561, 0.5860618352890015, 0.3971083462238312, 11.585692405700684, 0.9797624349594116, 0.07319485396146774, 0.2390095293521881, 0.043912872672080994, 0.11344122141599655, 0.9989001154899597, 0.9772502183914185, 0.6514968276023865
16, 40, 35, 30Perc, first, 1.669860601425171, 1.7360800504684448, 0.47351354360580444, 0.4547326862812042, 0.4368669092655182, 0.566663384437561, 0.5860618352890015, 0.3971083462238312, 11.585692405700684, 0.9797624349594116, 0.07319485396146774, 0.2390095293521881, 0.07879503071308136, 0.19082385301589966, 0.998130202293396, 0.9535113573074341, 0.6432751417160034
16, 40, 34, 30Perc, last, 1.669860601425171, 1.7360800504684448, 0.47351354360580444, 0.4547326862812042, 0.4368669092655182, 0.566663384437561, 0.5860618352890015, 0.3971083462238312, 11.585692405700684, 0.9797624349594116, 0.07319485396146774, 0.2390095293521881, 0.08100525289773941, 0.2726922631263733, 0.9980202317237854, 0.9357072114944458, 0.6469507217407227
16, 40, 72, 30Perc, first_last, 1.669860601425171, 1.7360800504684448, 0.47351354360580444, 0.4547326862812042, 0.4368669092655182, 0.566663384437561, 0.5860618352890015, 0.3971083462238312, 11.585692405700684, 0.9797624349594116, 0.07319485396146774, 0.2390095293521881, 0.05470114201307297, 0.12340380251407623, 0.998130202293396, 0.9762611389160156, 0.6458383798599243
16, 40, 11, 30Perc, new, 1.669860601425171, 1.7360800504684448, 0.47351354360580444, 0.4547326862812042, 0.4368669092655182, 0.566663384437561, 0.5860618352890015, 0.3971083462238312, 11.585692405700684, 0.9797624349594116, 0.07319485396146774, 0.2390095293521881, 2.8815369606018066, 2.871736526489258, 0.10635723918676376, 0.10781404376029968, 0.10112685710191727
16, 40, 29, 16Perc, all, 1.669860601425171, 1.7360800504684448, 0.47351354360580444, 0.4547326862812042, 0.4368669092655182, 0.5805538892745972, 0.5802655816078186, 0.47472497820854187, 7.475519180297852, 0.9970799684524536, 0.1131313145160675, 0.25366780161857605, 0.0975193977355957, 0.1936391294002533, 0.99842768907547, 0.9454545378684998, 0.5897882580757141
16, 40, 34, 16Perc, first, 1.669860601425171, 1.7360800504684448, 0.47351354360580444, 0.4547326862812042, 0.4368669092655182, 0.5805538892745972, 0.5802655816078186, 0.47472497820854187, 7.475519180297852, 0.9970799684524536, 0.1131313145160675, 0.25366780161857605, 0.09098590165376663, 0.16314107179641724, 0.9986522793769836, 0.9636363387107849, 0.5935431718826294
16, 40, 46, 16Perc, last, 1.669860601425171, 1.7360800504684448, 0.47351354360580444, 0.4547326862812042, 0.4368669092655182, 0.5805538892745972, 0.5802655816078186, 0.47472497820854187, 7.475519180297852, 0.9970799684524536, 0.1131313145160675, 0.25366780161857605, 0.0772431492805481, 0.1336609423160553, 0.9993261694908142, 0.9696969985961914, 0.5765106678009033
16, 40, 55, 16Perc, first_last, 1.669860601425171, 1.7360800504684448, 0.47351354360580444, 0.4547326862812042, 0.4368669092655182, 0.5805538892745972, 0.5802655816078186, 0.47472497820854187, 7.475519180297852, 0.9970799684524536, 0.1131313145160675, 0.25366780161857605, 0.06973255425691605, 0.1433863639831543, 0.9995507597923279, 0.973737359046936, 0.5950915217399597
16, 40, 14, 16Perc, new, 1.669860601425171, 1.7360800504684448, 0.47351354360580444, 0.4547326862812042, 0.4368669092655182, 0.5805538892745972, 0.5802655816078186, 0.47472497820854187, 7.475519180297852, 0.9970799684524536, 0.1131313145160675, 0.25366780161857605, 2.8976333141326904, 2.9023685455322266, 0.10512129217386246, 0.10505050420761108, 0.10246583819389343
16, 40, 31, fiveMovements, all, 1.669860601425171, 1.7360800504684448, 0.47351354360580444, 0.4547326862812042, 0.4368669092655182, 0.5502882599830627, 0.590627908706665, 0.9398360252380371, 9.49425983428955, 0.997863233089447, 0.2165605127811432, 0.10725332796573639, 0.10525280982255936, 0.13929511606693268, 0.9971510171890259, 0.9745222926139832, 0.19660532474517822
16, 40, 30, fiveMovements, first, 1.669860601425171, 1.7360800504684448, 0.47351354360580444, 0.4547326862812042, 0.4368669092655182, 0.5502882599830627, 0.590627908706665, 0.9398360252380371, 9.49425983428955, 0.997863233089447, 0.2165605127811432, 0.10725332796573639, 0.10133344680070877, 0.15045085549354553, 1.0, 0.9745222926139832, 0.1980745494365692
16, 40, 27, fiveMovements, last, 1.669860601425171, 1.7360800504684448, 0.47351354360580444, 0.4547326862812042, 0.4368669092655182, 0.5502882599830627, 0.590627908706665, 0.9398360252380371, 9.49425983428955, 0.997863233089447, 0.2165605127811432, 0.10725332796573639, 0.10386094450950623, 0.15285871922969818, 0.9992877244949341, 0.9745222926139832, 0.18999381363391876
16, 40, 31, fiveMovements, first_last, 1.669860601425171, 1.7360800504684448, 0.47351354360580444, 0.4547326862812042, 0.4368669092655182, 0.5502882599830627, 0.590627908706665, 0.9398360252380371, 9.49425983428955, 0.997863233089447, 0.2165605127811432, 0.10725332796573639, 0.10325828194618225, 0.17509883642196655, 0.9992877244949341, 0.9617834687232971, 0.1919270008802414
16, 40, 11, fiveMovements, new, 1.669860601425171, 1.7360800504684448, 0.47351354360580444, 0.4547326862812042, 0.4368669092655182, 0.5502882599830627, 0.590627908706665, 0.9398360252380371, 9.49425983428955, 0.997863233089447, 0.2165605127811432, 0.10725332796573639, 3.167304754257202, 3.095525026321411, 0.3589743673801422, 0.30573248863220215, 0.10184039920568466
16, 40, 16, oneMovement, all, 1.669860601425171, 1.7360800504684448, 0.47351354360580444, 0.4547326862812042, 0.4368669092655182, 0.8087431788444519, 0.5931023955345154, 1.1162388324737549, 1.0967470407485962, 1.0, 1.0, 0.0380064956843853, 0.11426125466823578, 0.10832259804010391, 1.0, 1.0, 0.46690380573272705
16, 40, 16, oneMovement, first, 1.669860601425171, 1.7360800504684448, 0.47351354360580444, 0.4547326862812042, 0.4368669092655182, 0.8087431788444519, 0.5931023955345154, 1.1162388324737549, 1.0967470407485962, 1.0, 1.0, 0.0380064956843853, 0.10800625383853912, 0.10846513509750366, 1.0, 1.0, 0.4686436653137207
16, 40, 15, oneMovement, last, 1.669860601425171, 1.7360800504684448, 0.47351354360580444, 0.4547326862812042, 0.4368669092655182, 0.8087431788444519, 0.5931023955345154, 1.1162388324737549, 1.0967470407485962, 1.0, 1.0, 0.0380064956843853, 0.10951152443885803, 0.1076638475060463, 1.0, 1.0, 0.5190225839614868
16, 40, 18, oneMovement, first_last, 1.669860601425171, 1.7360800504684448, 0.47351354360580444, 0.4547326862812042, 0.4368669092655182, 0.8087431788444519, 0.5931023955345154, 1.1162388324737549, 1.0967470407485962, 1.0, 1.0, 0.0380064956843853, 0.10950206965208054, 0.10938629508018494, 1.0, 1.0, 0.343566358089447
16, 40, 14, oneMovement, new, 1.669860601425171, 1.7360800504684448, 0.47351354360580444, 0.4547326862812042, 0.4368669092655182, 0.8087431788444519, 0.5931023955345154, 1.1162388324737549, 1.0967470407485962, 1.0, 1.0, 0.0380064956843853, 4.164674282073975, 4.064136028289795, 1.0, 1.0, 0.0380064956843853
17, 29, 41, 83Perc, all, 1.6698490381240845, 1.7354933023452759, 0.4726291298866272, 0.4537214934825897, 0.42902058362960815, 0.5883585214614868, 0.4826452434062958, 0.12287170439958572, 0.2564798593521118, 0.9890230298042297, 0.9340181946754456, 0.6373766660690308, 0.1094338595867157, 0.13154667615890503, 0.9858177900314331, 0.9758988618850708, 0.698392391204834
17, 29, 29, 83Perc, first, 1.6698490381240845, 1.7354933023452759, 0.4726291298866272, 0.4537214934825897, 0.42902058362960815, 0.5883585214614868, 0.4826452434062958, 0.12287170439958572, 0.2564798593521118, 0.9890230298042297, 0.9340181946754456, 0.6373766660690308, 0.09492389112710953, 0.14372535049915314, 0.9930186867713928, 0.9731331467628479, 0.6846912503242493
17, 29, 45, 83Perc, last, 1.6698490381240845, 1.7354933023452759, 0.4726291298866272, 0.4537214934825897, 0.42902058362960815, 0.5883585214614868, 0.4826452434062958, 0.12287170439958572, 0.2564798593521118, 0.9890230298042297, 0.9340181946754456, 0.6373766660690308, 0.08861829340457916, 0.15593917667865753, 0.9917453527450562, 0.9679968357086182, 0.6976616978645325
17, 29, 48, 83Perc, first_last, 1.6698490381240845, 1.7354933023452759, 0.4726291298866272, 0.4537214934825897, 0.42902058362960815, 0.5883585214614868, 0.4826452434062958, 0.12287170439958572, 0.2564798593521118, 0.9890230298042297, 0.9340181946754456, 0.6373766660690308, 0.08099963515996933, 0.11406860500574112, 0.9936772584915161, 0.9806400537490845, 0.6857873797416687
17, 29, 11, 83Perc, new, 1.6698490381240845, 1.7354933023452759, 0.4726291298866272, 0.4537214934825897, 0.42902058362960815, 0.5883585214614868, 0.4826452434062958, 0.12287170439958572, 0.2564798593521118, 0.9890230298042297, 0.9340181946754456, 0.6373766660690308, 2.8521840572357178, 2.8500516414642334, 0.10682766139507294, 0.10628210008144379, 0.08494701981544495
17, 29, 35, 60Perc, all, 1.6698490381240845, 1.7354933023452759, 0.4726291298866272, 0.4537214934825897, 0.42902058362960815, 0.5753976106643677, 0.5270168781280518, 0.10972975194454193, 0.32497638463974, 0.9898939728736877, 0.9234592318534851, 0.6318011283874512, 0.08526531606912613, 0.12323841452598572, 0.9947537183761597, 0.9826043844223022, 0.7000938057899475
17, 29, 43, 60Perc, first, 1.6698490381240845, 1.7354933023452759, 0.4726291298866272, 0.4537214934825897, 0.42902058362960815, 0.5753976106643677, 0.5270168781280518, 0.10972975194454193, 0.32497638463974, 0.9898939728736877, 0.9234592318534851, 0.6318011283874512, 0.08977352827787399, 0.10792934894561768, 0.9924342632293701, 0.9880715608596802, 0.693996250629425
17, 29, 41, 60Perc, last, 1.6698490381240845, 1.7354933023452759, 0.4726291298866272, 0.4537214934825897, 0.42902058362960815, 0.5753976106643677, 0.5270168781280518, 0.10972975194454193, 0.32497638463974, 0.9898939728736877, 0.9234592318534851, 0.6318011283874512, 0.08070337772369385, 0.12222477048635483, 0.9935387969017029, 0.9776341915130615, 0.6933395862579346
17, 29, 44, 60Perc, first_last, 1.6698490381240845, 1.7354933023452759, 0.4726291298866272, 0.4537214934825897, 0.42902058362960815, 0.5753976106643677, 0.5270168781280518, 0.10972975194454193, 0.32497638463974, 0.9898939728736877, 0.9234592318534851, 0.6318011283874512, 0.07712376862764359, 0.1023934856057167, 0.9952507019042969, 0.9855864644050598, 0.692870557308197
17, 29, 11, 60Perc, new, 1.6698490381240845, 1.7354933023452759, 0.4726291298866272, 0.4537214934825897, 0.42902058362960815, 0.5753976106643677, 0.5270168781280518, 0.10972975194454193, 0.32497638463974, 0.9898939728736877, 0.9234592318534851, 0.6318011283874512, 2.859943151473999, 2.858175277709961, 0.10719019174575806, 0.10834989696741104, 0.09455909579992294
17, 29, 48, 30Perc, all, 1.6698490381240845, 1.7354933023452759, 0.4726291298866272, 0.4537214934825897, 0.42902058362960815, 0.5518162846565247, 0.5672969818115234, 0.4374138414859772, 13.156947135925293, 0.9877914786338806, 0.08902077376842499, 0.18000677227973938, 0.06547980010509491, 0.11042287945747375, 0.9980202317237854, 0.9851632118225098, 0.6404217481613159
17, 29, 45, 30Perc, first, 1.6698490381240845, 1.7354933023452759, 0.4726291298866272, 0.4537214934825897, 0.42902058362960815, 0.5518162846565247, 0.5672969818115234, 0.4374138414859772, 13.156947135925293, 0.9877914786338806, 0.08902077376842499, 0.18000677227973938, 0.06473145633935928, 0.12810546159744263, 0.9985701441764832, 0.9742828607559204, 0.6320065855979919
17, 29, 47, 30Perc, last, 1.6698490381240845, 1.7354933023452759, 0.4726291298866272, 0.4537214934825897, 0.42902058362960815, 0.5518162846565247, 0.5672969818115234, 0.4374138414859772, 13.156947135925293, 0.9877914786338806, 0.08902077376842499, 0.18000677227973938, 0.06408711522817612, 0.1461583375930786, 0.9987901449203491, 0.9713155031204224, 0.6400347948074341
17, 29, 52, 30Perc, first_last, 1.6698490381240845, 1.7354933023452759, 0.4726291298866272, 0.4537214934825897, 0.42902058362960815, 0.5518162846565247, 0.5672969818115234, 0.4374138414859772, 13.156947135925293, 0.9877914786338806, 0.08902077376842499, 0.18000677227973938, 0.06017044559121132, 0.1371757835149765, 0.9984601736068726, 0.9663699269294739, 0.6422111392021179
17, 29, 11, 30Perc, new, 1.6698490381240845, 1.7354933023452759, 0.4726291298866272, 0.4537214934825897, 0.42902058362960815, 0.5518162846565247, 0.5672969818115234, 0.4374138414859772, 13.156947135925293, 0.9877914786338806, 0.08902077376842499, 0.18000677227973938, 2.8776073455810547, 2.8732516765594482, 0.10657721012830734, 0.10583580285310745, 0.10112685710191727
17, 29, 27, 16Perc, all, 1.6698490381240845, 1.7354933023452759, 0.4726291298866272, 0.4537214934825897, 0.42902058362960815, 0.564988911151886, 0.5589362382888794, 0.5984830856323242, 11.047170639038086, 0.9896675944328308, 0.05252525210380554, 0.23725467920303345, 0.0932081788778305, 0.1801023930311203, 0.9986522793769836, 0.973737359046936, 0.5826655626296997
17, 29, 52, 16Perc, first, 1.6698490381240845, 1.7354933023452759, 0.4726291298866272, 0.4537214934825897, 0.42902058362960815, 0.564988911151886, 0.5589362382888794, 0.5984830856323242, 11.047170639038086, 0.9896675944328308, 0.05252525210380554, 0.23725467920303345, 0.06781410425901413, 0.14924508333206177, 0.9997754096984863, 0.9797979593276978, 0.569155752658844
17, 29, 59, 16Perc, last, 1.6698490381240845, 1.7354933023452759, 0.4726291298866272, 0.4537214934825897, 0.42902058362960815, 0.564988911151886, 0.5589362382888794, 0.5984830856323242, 11.047170639038086, 0.9896675944328308, 0.05252525210380554, 0.23725467920303345, 0.06290749460458755, 0.12390516698360443, 0.9993261694908142, 0.9797979593276978, 0.5775171518325806
17, 29, 49, 16Perc, first_last, 1.6698490381240845, 1.7354933023452759, 0.4726291298866272, 0.4537214934825897, 0.42902058362960815, 0.564988911151886, 0.5589362382888794, 0.5984830856323242, 11.047170639038086, 0.9896675944328308, 0.05252525210380554, 0.23725467920303345, 0.07015350461006165, 0.13567866384983063, 0.9993261694908142, 0.9818181991577148, 0.5722525715827942
17, 29, 12, 16Perc, new, 1.6698490381240845, 1.7354933023452759, 0.4726291298866272, 0.4537214934825897, 0.42902058362960815, 0.564988911151886, 0.5589362382888794, 0.5984830856323242, 11.047170639038086, 0.9896675944328308, 0.05252525210380554, 0.23725467920303345, 2.908752679824829, 2.914175271987915, 0.10534591227769852, 0.10303030163049698, 0.10246583819389343
17, 29, 26, fiveMovements, all, 1.6698490381240845, 1.7354933023452759, 0.4726291298866272, 0.4537214934825897, 0.42902058362960815, 0.48814862966537476, 0.5658444166183472, 0.905816912651062, 5.154549598693848, 0.9992877244949341, 0.14012739062309265, 0.14444787800312042, 0.10135314613580704, 0.1969214230775833, 1.0, 0.9681528806686401, 0.18736468255519867
17, 29, 28, fiveMovements, first, 1.6698490381240845, 1.7354933023452759, 0.4726291298866272, 0.4537214934825897, 0.42902058362960815, 0.48814862966537476, 0.5658444166183472, 0.905816912651062, 5.154549598693848, 0.9992877244949341, 0.14012739062309265, 0.14444787800312042, 0.09904555976390839, 0.17331965267658234, 1.0, 0.9681528806686401, 0.1927776038646698
17, 29, 27, fiveMovements, last, 1.6698490381240845, 1.7354933023452759, 0.4726291298866272, 0.4537214934825897, 0.42902058362960815, 0.48814862966537476, 0.5658444166183472, 0.905816912651062, 5.154549598693848, 0.9992877244949341, 0.14012739062309265, 0.14444787800312042, 0.09947650134563446, 0.18525634706020355, 1.0, 0.9681528806686401, 0.18751932680606842
17, 29, 23, fiveMovements, first_last, 1.6698490381240845, 1.7354933023452759, 0.4726291298866272, 0.4537214934825897, 0.42902058362960815, 0.48814862966537476, 0.5658444166183472, 0.905816912651062, 5.154549598693848, 0.9992877244949341, 0.14012739062309265, 0.14444787800312042, 0.103030726313591, 0.16241444647312164, 1.0, 0.9745222926139832, 0.17812404036521912
17, 29, 16, fiveMovements, new, 1.6698490381240845, 1.7354933023452759, 0.4726291298866272, 0.4537214934825897, 0.42902058362960815, 0.48814862966537476, 0.5658444166183472, 0.905816912651062, 5.154549598693848, 0.9992877244949341, 0.14012739062309265, 0.14444787800312042, 2.7666544914245605, 2.7263221740722656, 0.35256409645080566, 0.36305731534957886, 0.10184039920568466
17, 29, 16, oneMovement, all, 1.6698490381240845, 1.7354933023452759, 0.4726291298866272, 0.4537214934825897, 0.42902058362960815, 0.8961748480796814, 0.5675069689750671, 1.0059564113616943, 0.9747219085693359, 1.0, 1.0, 0.0380064956843853, 0.10448729991912842, 0.10424238443374634, 1.0, 1.0, 0.41296783089637756
17, 29, 15, oneMovement, first, 1.6698490381240845, 1.7354933023452759, 0.4726291298866272, 0.4537214934825897, 0.42902058362960815, 0.8961748480796814, 0.5675069689750671, 1.0059564113616943, 0.9747219085693359, 1.0, 1.0, 0.0380064956843853, 0.10479133576154709, 0.10473766922950745, 1.0, 1.0, 0.46183884143829346
17, 29, 15, oneMovement, last, 1.6698490381240845, 1.7354933023452759, 0.4726291298866272, 0.4537214934825897, 0.42902058362960815, 0.8961748480796814, 0.5675069689750671, 1.0059564113616943, 0.9747219085693359, 1.0, 1.0, 0.0380064956843853, 0.12090088427066803, 0.10426436364650726, 1.0, 1.0, 0.4744819104671478
17, 29, 16, oneMovement, first_last, 1.6698490381240845, 1.7354933023452759, 0.4726291298866272, 0.4537214934825897, 0.42902058362960815, 0.8961748480796814, 0.5675069689750671, 1.0059564113616943, 0.9747219085693359, 1.0, 1.0, 0.0380064956843853, 0.1065254658460617, 0.1054648607969284, 1.0, 1.0, 0.41621559858322144
17, 29, 20, oneMovement, new, 1.6698490381240845, 1.7354933023452759, 0.4726291298866272, 0.4537214934825897, 0.42902058362960815, 0.8961748480796814, 0.5675069689750671, 1.0059564113616943, 0.9747219085693359, 1.0, 1.0, 0.0380064956843853, 3.681807041168213, 3.6053860187530518, 1.0, 1.0, 0.0380064956843853
18, 45, 41, 83Perc, all, 1.6734967231750488, 1.7841789722442627, 0.4739217162132263, 0.44519588351249695, 0.43170154094696045, 0.6003319621086121, 0.5237486362457275, 0.10881953686475754, 0.2458178699016571, 0.9899011850357056, 0.9371789693832397, 0.6185604929924011, 0.09885337948799133, 0.12463226914405823, 0.9917014241218567, 0.9830106496810913, 0.6815856695175171
18, 45, 49, 83Perc, first, 1.6734967231750488, 1.7841789722442627, 0.4739217162132263, 0.44519588351249695, 0.43170154094696045, 0.6003319621086121, 0.5237486362457275, 0.10881953686475754, 0.2458178699016571, 0.9899011850357056, 0.9371789693832397, 0.6185604929924011, 0.09214974194765091, 0.124001145362854, 0.9923600554466248, 0.9814302921295166, 0.6804895997047424
18, 45, 39, 83Perc, last, 1.6734967231750488, 1.7841789722442627, 0.4739217162132263, 0.44519588351249695, 0.43170154094696045, 0.6003319621086121, 0.5237486362457275, 0.10881953686475754, 0.2458178699016571, 0.9899011850357056, 0.9371789693832397, 0.6185604929924011, 0.08998231589794159, 0.13083401322364807, 0.9933699369430542, 0.9802449345588684, 0.6656923890113831
18, 45, 58, 83Perc, first_last, 1.6734967231750488, 1.7841789722442627, 0.4739217162132263, 0.44519588351249695, 0.43170154094696045, 0.6003319621086121, 0.5237486362457275, 0.10881953686475754, 0.2458178699016571, 0.9899011850357056, 0.9371789693832397, 0.6185604929924011, 0.08410441875457764, 0.12863895297050476, 0.9934138059616089, 0.9770841598510742, 0.6638655662536621
18, 45, 11, 83Perc, new, 1.6734967231750488, 1.7841789722442627, 0.4739217162132263, 0.44519588351249695, 0.43170154094696045, 0.6003319621086121, 0.5237486362457275, 0.10881953686475754, 0.2458178699016571, 0.9899011850357056, 0.9371789693832397, 0.6185604929924011, 2.8561673164367676, 2.849006414413452, 0.10612513870000839, 0.11260371655225754, 0.08494701981544495
18, 45, 41, 60Perc, all, 1.6734967231750488, 1.7841789722442627, 0.4739217162132263, 0.44519588351249695, 0.43170154094696045, 0.5770377516746521, 0.5714821815490723, 0.08847128599882126, 0.2119501680135727, 0.9949193596839905, 0.9547713994979858, 0.648499071598053, 0.07899195700883865, 0.11191803216934204, 0.9965208768844604, 0.9831013679504395, 0.689868688583374
18, 45, 45, 60Perc, first, 1.6734967231750488, 1.7841789722442627, 0.4739217162132263, 0.44519588351249695, 0.43170154094696045, 0.5770377516746521, 0.5714821815490723, 0.08847128599882126, 0.2119501680135727, 0.9949193596839905, 0.9547713994979858, 0.648499071598053, 0.07820863276720047, 0.10857298970222473, 0.9961342811584473, 0.9831013679504395, 0.7023451924324036
18, 45, 37, 60Perc, last, 1.6734967231750488, 1.7841789722442627, 0.4739217162132263, 0.44519588351249695, 0.43170154094696045, 0.5770377516746521, 0.5714821815490723, 0.08847128599882126, 0.2119501680135727, 0.9949193596839905, 0.9547713994979858, 0.648499071598053, 0.10063724964857101, 0.13229627907276154, 0.9886237978935242, 0.9811133146286011, 0.6860225200653076
18, 45, 43, 60Perc, first_last, 1.6734967231750488, 1.7841789722442627, 0.4739217162132263, 0.44519588351249695, 0.43170154094696045, 0.5770377516746521, 0.5714821815490723, 0.08847128599882126, 0.2119501680135727, 0.9949193596839905, 0.9547713994979858, 0.648499071598053, 0.07656670361757278, 0.1444307267665863, 0.9963551759719849, 0.974155068397522, 0.6850844025611877
18, 45, 11, 60Perc, new, 1.6734967231750488, 1.7841789722442627, 0.4739217162132263, 0.44519588351249695, 0.43170154094696045, 0.5770377516746521, 0.5714821815490723, 0.08847128599882126, 0.2119501680135727, 0.9949193596839905, 0.9547713994979858, 0.648499071598053, 2.863563299179077, 2.866158962249756, 0.10807377845048904, 0.10039761662483215, 0.09455909579992294
18, 45, 53, 30Perc, all, 1.6734967231750488, 1.7841789722442627, 0.4739217162132263, 0.44519588351249695, 0.43170154094696045, 0.5751757025718689, 0.5784688591957092, 0.4147181808948517, 13.814518928527832, 0.9836119413375854, 0.10583580285310745, 0.23306088149547577, 0.05972684919834137, 0.11620942503213882, 0.9984601736068726, 0.9782393574714661, 0.6464187502861023
18, 45, 56, 30Perc, first, 1.6734967231750488, 1.7841789722442627, 0.4739217162132263, 0.44519588351249695, 0.43170154094696045, 0.5751757025718689, 0.5784688591957092, 0.4147181808948517, 13.814518928527832, 0.9836119413375854, 0.10583580285310745, 0.23306088149547577, 0.05851072445511818, 0.10294492542743683, 0.9992300868034363, 0.9812067151069641, 0.6305073499679565
18, 45, 51, 30Perc, last, 1.6734967231750488, 1.7841789722442627, 0.4739217162132263, 0.44519588351249695, 0.43170154094696045, 0.5751757025718689, 0.5784688591957092, 0.4147181808948517, 13.814518928527832, 0.9836119413375854, 0.10583580285310745, 0.23306088149547577, 0.06294772028923035, 0.07689237594604492, 0.9987901449203491, 0.9930761456489563, 0.6547371745109558
18, 45, 73, 30Perc, first_last, 1.6734967231750488, 1.7841789722442627, 0.4739217162132263, 0.44519588351249695, 0.43170154094696045, 0.5751757025718689, 0.5784688591957092, 0.4147181808948517, 13.814518928527832, 0.9836119413375854, 0.10583580285310745, 0.23306088149547577, 0.06487392634153366, 0.08746646344661713, 0.9959304928779602, 0.9871414303779602, 0.632393479347229
18, 45, 11, 30Perc, new, 1.6734967231750488, 1.7841789722442627, 0.4739217162132263, 0.44519588351249695, 0.43170154094696045, 0.5751757025718689, 0.5784688591957092, 0.4147181808948517, 13.814518928527832, 0.9836119413375854, 0.10583580285310745, 0.23306088149547577, 2.883545160293579, 2.8786613941192627, 0.10580730438232422, 0.11275964230298996, 0.10112685710191727
18, 45, 24, 16Perc, all, 1.6734967231750488, 1.7841789722442627, 0.4739217162132263, 0.44519588351249695, 0.43170154094696045, 0.5850009918212891, 0.5734525322914124, 0.6271167993545532, 14.614648818969727, 0.9737196564674377, 0.10505050420761108, 0.17435063421726227, 0.10717552900314331, 0.42775991559028625, 0.9977537989616394, 0.8969696760177612, 0.5924592614173889
18, 45, 21, 16Perc, first, 1.6734967231750488, 1.7841789722442627, 0.4739217162132263, 0.44519588351249695, 0.43170154094696045, 0.5850009918212891, 0.5734525322914124, 0.6271167993545532, 14.614648818969727, 0.9737196564674377, 0.10505050420761108, 0.17435063421726227, 0.1138840988278389, 0.460988312959671, 0.9977537989616394, 0.8909090757369995, 0.598846435546875
18, 45, 24, 16Perc, last, 1.6734967231750488, 1.7841789722442627, 0.4739217162132263, 0.44519588351249695, 0.43170154094696045, 0.5850009918212891, 0.5734525322914124, 0.6271167993545532, 14.614648818969727, 0.9737196564674377, 0.10505050420761108, 0.17435063421726227, 0.10457250475883484, 0.5279413461685181, 0.9986522793769836, 0.8585858345031738, 0.5933495759963989
18, 45, 21, 16Perc, first_last, 1.6734967231750488, 1.7841789722442627, 0.4739217162132263, 0.44519588351249695, 0.43170154094696045, 0.5850009918212891, 0.5734525322914124, 0.6271167993545532, 14.614648818969727, 0.9737196564674377, 0.10505050420761108, 0.17435063421726227, 0.11220478266477585, 0.45236971974372864, 0.9977537989616394, 0.8989899158477783, 0.5973754525184631
18, 45, 12, 16Perc, new, 1.6734967231750488, 1.7841789722442627, 0.4739217162132263, 0.44519588351249695, 0.43170154094696045, 0.5850009918212891, 0.5734525322914124, 0.6271167993545532, 14.614648818969727, 0.9737196564674377, 0.10505050420761108, 0.17435063421726227, 2.912569999694824, 2.9301042556762695, 0.10759209096431732, 0.08282828330993652, 0.10246583819389343
18, 45, 45, fiveMovements, all, 1.6734967231750488, 1.7841789722442627, 0.4739217162132263, 0.44519588351249695, 0.43170154094696045, 0.5534913539886475, 0.586529552936554, 0.9359629154205322, 4.921023845672607, 0.99643874168396, 0.4331210255622864, 0.10095112770795822, 0.09635333716869354, 0.132741317152977, 1.0, 0.993630588054657, 0.18318898975849152
18, 45, 45, fiveMovements, first, 1.6734967231750488, 1.7841789722442627, 0.4739217162132263, 0.44519588351249695, 0.43170154094696045, 0.5534913539886475, 0.586529552936554, 0.9359629154205322, 4.921023845672607, 0.99643874168396, 0.4331210255622864, 0.10095112770795822, 0.09780314564704895, 0.14020869135856628, 0.9992877244949341, 0.993630588054657, 0.18311166763305664
18, 45, 16, fiveMovements, last, 1.6734967231750488, 1.7841789722442627, 0.4739217162132263, 0.44519588351249695, 0.43170154094696045, 0.5534913539886475, 0.586529552936554, 0.9359629154205322, 4.921023845672607, 0.99643874168396, 0.4331210255622864, 0.10095112770795822, 0.12103985249996185, 0.3842160701751709, 0.9971510171890259, 0.9299362897872925, 0.1403108537197113
18, 45, 44, fiveMovements, first_last, 1.6734967231750488, 1.7841789722442627, 0.4739217162132263, 0.44519588351249695, 0.43170154094696045, 0.5534913539886475, 0.586529552936554, 0.9359629154205322, 4.921023845672607, 0.99643874168396, 0.4331210255622864, 0.10095112770795822, 0.0972503051161766, 0.12615500390529633, 1.0, 0.993630588054657, 0.18732601404190063
18, 45, 20, fiveMovements, new, 1.6734967231750488, 1.7841789722442627, 0.4739217162132263, 0.44519588351249695, 0.43170154094696045, 0.5534913539886475, 0.586529552936554, 0.9359629154205322, 4.921023845672607, 0.99643874168396, 0.4331210255622864, 0.10095112770795822, 2.5765867233276367, 2.564833402633667, 0.3603988587856293, 0.2929936349391937, 0.10184039920568466
18, 45, 12, oneMovement, all, 1.6734967231750488, 1.7841789722442627, 0.4739217162132263, 0.44519588351249695, 0.43170154094696045, 0.9234972596168518, 0.5871095061302185, 1.076674461364746, 1.0535733699798584, 1.0, 1.0, 0.0380064956843853, 0.14441415667533875, 0.10882192105054855, 1.0, 1.0, 0.5877281427383423
18, 45, 12, oneMovement, first, 1.6734967231750488, 1.7841789722442627, 0.4739217162132263, 0.44519588351249695, 0.43170154094696045, 0.9234972596168518, 0.5871095061302185, 1.076674461364746, 1.0535733699798584, 1.0, 1.0, 0.0380064956843853, 0.1596848964691162, 0.10885057598352432, 0.9939024448394775, 1.0, 0.5888106822967529
18, 45, 12, oneMovement, last, 1.6734967231750488, 1.7841789722442627, 0.4739217162132263, 0.44519588351249695, 0.43170154094696045, 0.9234972596168518, 0.5871095061302185, 1.076674461364746, 1.0535733699798584, 1.0, 1.0, 0.0380064956843853, 0.13546621799468994, 0.10867712646722794, 0.9939024448394775, 1.0, 0.5898932814598083
18, 45, 12, oneMovement, first_last, 1.6734967231750488, 1.7841789722442627, 0.4739217162132263, 0.44519588351249695, 0.43170154094696045, 0.9234972596168518, 0.5871095061302185, 1.076674461364746, 1.0535733699798584, 1.0, 1.0, 0.0380064956843853, 0.1671280562877655, 0.10881628841161728, 0.9878048896789551, 1.0, 0.5881534218788147
18, 45, 11, oneMovement, new, 1.6734967231750488, 1.7841789722442627, 0.4739217162132263, 0.44519588351249695, 0.43170154094696045, 0.9234972596168518, 0.5871095061302185, 1.076674461364746, 1.0535733699798584, 1.0, 1.0, 0.0380064956843853, 4.405679702758789, 4.294454574584961, 1.0, 1.0, 0.0380064956843853
19, 38, 48, 83Perc, all, 1.6648979187011719, 1.7711894512176514, 0.4750545620918274, 0.4453350305557251, 0.42707890272140503, 0.5721963047981262, 0.4649251103401184, 0.09824761003255844, 0.2513694763183594, 0.9918770790100098, 0.9324377775192261, 0.6547314524650574, 0.08423855155706406, 0.12443796545267105, 0.9938529133796692, 0.9766890406608582, 0.6538180708885193
19, 38, 28, 83Perc, first, 1.6648979187011719, 1.7711894512176514, 0.4750545620918274, 0.4453350305557251, 0.42707890272140503, 0.5721963047981262, 0.4649251103401184, 0.09824761003255844, 0.2513694763183594, 0.9918770790100098, 0.9324377775192261, 0.6547314524650574, 0.1021815687417984, 0.1402573138475418, 0.9910867214202881, 0.9774792790412903, 0.6602119207382202
19, 38, 37, 83Perc, last, 1.6648979187011719, 1.7711894512176514, 0.4750545620918274, 0.4453350305557251, 0.42707890272140503, 0.5721963047981262, 0.4649251103401184, 0.09824761003255844, 0.2513694763183594, 0.9918770790100098, 0.9324377775192261, 0.6547314524650574, 0.10159563273191452, 0.14304138720035553, 0.9892426133155823, 0.9727380275726318, 0.6719035506248474
19, 38, 42, 83Perc, first_last, 1.6648979187011719, 1.7711894512176514, 0.4750545620918274, 0.4453350305557251, 0.42707890272140503, 0.5721963047981262, 0.4649251103401184, 0.09824761003255844, 0.2513694763183594, 0.9918770790100098, 0.9324377775192261, 0.6547314524650574, 0.09837114810943604, 0.15604567527770996, 0.989286482334137, 0.9683919548988342, 0.6461454033851624
19, 38, 11, 83Perc, new, 1.6648979187011719, 1.7711894512176514, 0.4750545620918274, 0.4453350305557251, 0.42707890272140503, 0.5721963047981262, 0.4649251103401184, 0.09824761003255844, 0.2513694763183594, 0.9918770790100098, 0.9324377775192261, 0.6547314524650574, 2.8519108295440674, 2.8499832153320312, 0.10630077123641968, 0.11102331429719925, 0.08494701981544495
19, 38, 36, 60Perc, all, 1.6648979187011719, 1.7711894512176514, 0.4750545620918274, 0.4453350305557251, 0.42707890272140503, 0.5546719431877136, 0.5257973670959473, 0.10570909082889557, 0.32528722286224365, 0.9923790693283081, 0.9160040020942688, 0.6293621063232422, 0.0897412896156311, 0.10955874621868134, 0.9925447106361389, 0.9860835075378418, 0.6740149855613708
19, 38, 48, 60Perc, first, 1.6648979187011719, 1.7711894512176514, 0.4750545620918274, 0.4453350305557251, 0.42707890272140503, 0.5546719431877136, 0.5257973670959473, 0.10570909082889557, 0.32528722286224365, 0.9923790693283081, 0.9160040020942688, 0.6293621063232422, 0.08524192869663239, 0.16065818071365356, 0.9907775521278381, 0.9676938652992249, 0.6818011403083801
19, 38, 40, 60Perc, last, 1.6648979187011719, 1.7711894512176514, 0.4750545620918274, 0.4453350305557251, 0.42707890272140503, 0.5546719431877136, 0.5257973670959473, 0.10570909082889557, 0.32528722286224365, 0.9923790693283081, 0.9160040020942688, 0.6293621063232422, 0.0852711871266365, 0.11097031086683273, 0.9943671226501465, 0.9826043844223022, 0.6674484014511108
19, 38, 43, 60Perc, first_last, 1.6648979187011719, 1.7711894512176514, 0.4750545620918274, 0.4453350305557251, 0.42707890272140503, 0.5546719431877136, 0.5257973670959473, 0.10570909082889557, 0.32528722286224365, 0.9923790693283081, 0.9160040020942688, 0.6293621063232422, 0.08547063171863556, 0.1321660876274109, 0.9929865002632141, 0.9776341915130615, 0.6695122122764587
19, 38, 11, 60Perc, new, 1.6648979187011719, 1.7711894512176514, 0.4750545620918274, 0.4453350305557251, 0.42707890272140503, 0.5546719431877136, 0.5257973670959473, 0.10570909082889557, 0.32528722286224365, 0.9923790693283081, 0.9160040020942688, 0.6293621063232422, 2.8596770763397217, 2.859177589416504, 0.10707974433898926, 0.10934393852949142, 0.09455909579992294
19, 38, 60, 30Perc, all, 1.6648979187011719, 1.7711894512176514, 0.4750545620918274, 0.4453350305557251, 0.42707890272140503, 0.5594378113746643, 0.5356192588806152, 0.3912173807621002, 13.073403358459473, 0.9907611012458801, 0.08605341613292694, 0.21990618109703064, 0.055805034935474396, 0.09437349438667297, 0.9980202317237854, 0.9841740727424622, 0.6381003260612488
19, 38, 55, 30Perc, first, 1.6648979187011719, 1.7711894512176514, 0.4750545620918274, 0.4453350305557251, 0.42707890272140503, 0.5594378113746643, 0.5356192588806152, 0.3912173807621002, 13.073403358459473, 0.9907611012458801, 0.08605341613292694, 0.21990618109703064, 0.05683380737900734, 0.08444230258464813, 0.9984601736068726, 0.9901087880134583, 0.6435169577598572
19, 38, 52, 30Perc, last, 1.6648979187011719, 1.7711894512176514, 0.4750545620918274, 0.4453350305557251, 0.42707890272140503, 0.5594378113746643, 0.5356192588806152, 0.3912173807621002, 13.073403358459473, 0.9907611012458801, 0.08605341613292694, 0.21990618109703064, 0.061467114835977554, 0.09279551357030869, 0.9975802898406982, 0.9871414303779602, 0.6407602429389954
19, 38, 65, 30Perc, first_last, 1.6648979187011719, 1.7711894512176514, 0.4750545620918274, 0.4453350305557251, 0.42707890272140503, 0.5594378113746643, 0.5356192588806152, 0.3912173807621002, 13.073403358459473, 0.9907611012458801, 0.08605341613292694, 0.21990618109703064, 0.05259805917739868, 0.09750385582447052, 0.998350203037262, 0.9792284965515137, 0.6351985335350037
19, 38, 11, 30Perc, new, 1.6648979187011719, 1.7711894512176514, 0.4750545620918274, 0.4453350305557251, 0.42707890272140503, 0.5594378113746643, 0.5356192588806152, 0.3912173807621002, 13.073403358459473, 0.9907611012458801, 0.08605341613292694, 0.21990618109703064, 2.876595973968506, 2.883939266204834, 0.10734711587429047, 0.09891197085380554, 0.10112685710191727
19, 38, 79, 16Perc, all, 1.6648979187011719, 1.7711894512176514, 0.4750545620918274, 0.4453350305557251, 0.42707890272140503, 0.5409339070320129, 0.5452715754508972, 0.5057677626609802, 7.55898380279541, 0.9955076575279236, 0.08888889104127884, 0.22424805164337158, 0.05451061576604843, 0.08932363986968994, 0.9988769292831421, 0.9898989796638489, 0.5789107084274292
19, 38, 44, 16Perc, first, 1.6648979187011719, 1.7711894512176514, 0.4750545620918274, 0.4453350305557251, 0.42707890272140503, 0.5409339070320129, 0.5452715754508972, 0.5057677626609802, 7.55898380279541, 0.9955076575279236, 0.08888889104127884, 0.22424805164337158, 0.07790541648864746, 0.16646063327789307, 0.9988769292831421, 0.9717171788215637, 0.5827043056488037
19, 38, 68, 16Perc, last, 1.6648979187011719, 1.7711894512176514, 0.4750545620918274, 0.4453350305557251, 0.42707890272140503, 0.5409339070320129, 0.5452715754508972, 0.5057677626609802, 7.55898380279541, 0.9955076575279236, 0.08888889104127884, 0.22424805164337158, 0.05914592370390892, 0.09807012230157852, 0.9988769292831421, 0.9818181991577148, 0.5751171112060547
19, 38, 59, 16Perc, first_last, 1.6648979187011719, 1.7711894512176514, 0.4750545620918274, 0.4453350305557251, 0.42707890272140503, 0.5409339070320129, 0.5452715754508972, 0.5057677626609802, 7.55898380279541, 0.9955076575279236, 0.08888889104127884, 0.22424805164337158, 0.06348902732133865, 0.10559406876564026, 1.0, 0.9858585596084595, 0.5662524700164795
19, 38, 13, 16Perc, new, 1.6648979187011719, 1.7711894512176514, 0.4750545620918274, 0.4453350305557251, 0.42707890272140503, 0.5409339070320129, 0.5452715754508972, 0.5057677626609802, 7.55898380279541, 0.9955076575279236, 0.08888889104127884, 0.22424805164337158, 2.9001739025115967, 2.902951240539551, 0.10669361799955368, 0.09090909361839294, 0.10246583819389343
19, 38, 28, fiveMovements, all, 1.6648979187011719, 1.7711894512176514, 0.4750545620918274, 0.4453350305557251, 0.42707890272140503, 0.468930184841156, 0.5469765067100525, 0.9246920347213745, 8.017159461975098, 1.0, 0.21019108593463898, 0.0982833281159401, 0.09939908981323242, 0.10706568509340286, 1.0, 0.993630588054657, 0.18055985867977142
19, 38, 29, fiveMovements, first, 1.6648979187011719, 1.7711894512176514, 0.4750545620918274, 0.4453350305557251, 0.42707890272140503, 0.468930184841156, 0.5469765067100525, 0.9246920347213745, 8.017159461975098, 1.0, 0.21019108593463898, 0.0982833281159401, 0.09848636388778687, 0.10393339395523071, 1.0, 1.0, 0.18763531744480133
19, 38, 30, fiveMovements, last, 1.6648979187011719, 1.7711894512176514, 0.4750545620918274, 0.4453350305557251, 0.42707890272140503, 0.468930184841156, 0.5469765067100525, 0.9246920347213745, 8.017159461975098, 1.0, 0.21019108593463898, 0.0982833281159401, 0.09753135591745377, 0.10941413044929504, 1.0, 0.993630588054657, 0.18280234932899475
19, 38, 33, fiveMovements, first_last, 1.6648979187011719, 1.7711894512176514, 0.4750545620918274, 0.4453350305557251, 0.42707890272140503, 0.468930184841156, 0.5469765067100525, 0.9246920347213745, 8.017159461975098, 1.0, 0.21019108593463898, 0.0982833281159401, 0.09666575491428375, 0.10670012980699539, 1.0, 0.993630588054657, 0.1845422238111496
19, 38, 12, fiveMovements, new, 1.6648979187011719, 1.7711894512176514, 0.4750545620918274, 0.4453350305557251, 0.42707890272140503, 0.468930184841156, 0.5469765067100525, 0.9246920347213745, 8.017159461975098, 1.0, 0.21019108593463898, 0.0982833281159401, 3.0582010746002197, 2.9874930381774902, 0.35256409645080566, 0.36305731534957886, 0.10184039920568466
19, 38, 16, oneMovement, all, 1.6648979187011719, 1.7711894512176514, 0.4750545620918274, 0.4453350305557251, 0.42707890272140503, 0.9071038365364075, 0.5501855611801147, 1.1121208667755127, 1.0921300649642944, 1.0, 1.0, 0.0380064956843853, 0.11138374358415604, 0.10406143963336945, 1.0, 1.0, 0.43373027443885803
19, 38, 16, oneMovement, first, 1.6648979187011719, 1.7711894512176514, 0.4750545620918274, 0.4453350305557251, 0.42707890272140503, 0.9071038365364075, 0.5501855611801147, 1.1121208667755127, 1.0921300649642944, 1.0, 1.0, 0.0380064956843853, 0.10375434905290604, 0.10406190901994705, 1.0, 1.0, 0.44347354769706726
19, 38, 16, oneMovement, last, 1.6648979187011719, 1.7711894512176514, 0.4750545620918274, 0.4453350305557251, 0.42707890272140503, 0.9071038365364075, 0.5501855611801147, 1.1121208667755127, 1.0921300649642944, 1.0, 1.0, 0.0380064956843853, 0.10920026898384094, 0.10400769859552383, 1.0, 1.0, 0.4266548156738281
19, 38, 16, oneMovement, first_last, 1.6648979187011719, 1.7711894512176514, 0.4750545620918274, 0.4453350305557251, 0.42707890272140503, 0.9071038365364075, 0.5501855611801147, 1.1121208667755127, 1.0921300649642944, 1.0, 1.0, 0.0380064956843853, 0.10701040178537369, 0.10423046350479126, 1.0, 1.0, 0.43303433060646057
19, 38, 17, oneMovement, new, 1.6648979187011719, 1.7711894512176514, 0.4750545620918274, 0.4453350305557251, 0.42707890272140503, 0.9071038365364075, 0.5501855611801147, 1.1121208667755127, 1.0921300649642944, 1.0, 1.0, 0.0380064956843853, 3.9798483848571777, 3.8896238803863525, 1.0, 1.0, 0.0380064956843853
20, 36, 31, 83Perc, all, 1.6726627349853516, 1.7482637166976929, 0.47273221611976624, 0.4515784978866577, 0.4255208671092987, 0.6066545248031616, 0.5184508562088013, 0.11332488805055618, 0.2498168647289276, 0.9935016632080078, 0.9458711743354797, 0.6191084980964661, 0.11237730085849762, 0.12663348019123077, 0.9869154691696167, 0.9806400537490845, 0.6907197833061218
20, 36, 38, 83Perc, first, 1.6726627349853516, 1.7482637166976929, 0.47273221611976624, 0.4515784978866577, 0.4255208671092987, 0.6066545248031616, 0.5184508562088013, 0.11332488805055618, 0.2498168647289276, 0.9935016632080078, 0.9458711743354797, 0.6191084980964661, 0.09161978960037231, 0.1342465877532959, 0.9931504130363464, 0.979059636592865, 0.6713554859161377
20, 36, 44, 83Perc, last, 1.6726627349853516, 1.7482637166976929, 0.47273221611976624, 0.4515784978866577, 0.4255208671092987, 0.6066545248031616, 0.5184508562088013, 0.11332488805055618, 0.2498168647289276, 0.9935016632080078, 0.9458711743354797, 0.6191084980964661, 0.09960854053497314, 0.18871329724788666, 0.9881010055541992, 0.9620703458786011, 0.6863353848457336
20, 36, 46, 83Perc, first_last, 1.6726627349853516, 1.7482637166976929, 0.47273221611976624, 0.4515784978866577, 0.4255208671092987, 0.6066545248031616, 0.5184508562088013, 0.11332488805055618, 0.2498168647289276, 0.9935016632080078, 0.9458711743354797, 0.6191084980964661, 0.08999055624008179, 0.13514690101146698, 0.9921844005584717, 0.9731331467628479, 0.6728169322013855
20, 36, 11, 83Perc, new, 1.6726627349853516, 1.7482637166976929, 0.47273221611976624, 0.4515784978866577, 0.4255208671092987, 0.6066545248031616, 0.5184508562088013, 0.11332488805055618, 0.2498168647289276, 0.9935016632080078, 0.9458711743354797, 0.6191084980964661, 2.8536431789398193, 2.8534018993377686, 0.10700329393148422, 0.1047016978263855, 0.08494701981544495
20, 36, 36, 60Perc, all, 1.6726627349853516, 1.7482637166976929, 0.47273221611976624, 0.4515784978866577, 0.4255208671092987, 0.5881212949752808, 0.5626641511917114, 0.0888952687382698, 0.20181889832019806, 0.9951402544975281, 0.9567594528198242, 0.6327391862869263, 0.08476389944553375, 0.09841478615999222, 0.9940357804298401, 0.9855864644050598, 0.6761726140975952
20, 36, 34, 60Perc, first, 1.6726627349853516, 1.7482637166976929, 0.47273221611976624, 0.4515784978866577, 0.4255208671092987, 0.5881212949752808, 0.5626641511917114, 0.0888952687382698, 0.20181889832019806, 0.9951402544975281, 0.9567594528198242, 0.6327391862869263, 0.10678783804178238, 0.16211296617984772, 0.9871327877044678, 0.9666997790336609, 0.6713883876800537
20, 36, 49, 60Perc, last, 1.6726627349853516, 1.7482637166976929, 0.47273221611976624, 0.4515784978866577, 0.4255208671092987, 0.5881212949752808, 0.5626641511917114, 0.0888952687382698, 0.20181889832019806, 0.9951402544975281, 0.9567594528198242, 0.6327391862869263, 0.07447291910648346, 0.10779527574777603, 0.9953611493110657, 0.9801192879676819, 0.6794559359550476
20, 36, 51, 60Perc, first_last, 1.6726627349853516, 1.7482637166976929, 0.47273221611976624, 0.4515784978866577, 0.4255208671092987, 0.5881212949752808, 0.5626641511917114, 0.0888952687382698, 0.20181889832019806, 0.9951402544975281, 0.9567594528198242, 0.6327391862869263, 0.0806671679019928, 0.10572107881307602, 0.9934282898902893, 0.9840954542160034, 0.691744863986969
20, 36, 11, 60Perc, new, 1.6726627349853516, 1.7482637166976929, 0.47273221611976624, 0.4515784978866577, 0.4255208671092987, 0.5881212949752808, 0.5626641511917114, 0.0888952687382698, 0.20181889832019806, 0.9951402544975281, 0.9567594528198242, 0.6327391862869263, 2.8631184101104736, 2.84957218170166, 0.10514689981937408, 0.12673956155776978, 0.09455909579992294
20, 36, 37, 30Perc, all, 1.6726627349853516, 1.7482637166976929, 0.47273221611976624, 0.4515784978866577, 0.4255208671092987, 0.5802236795425415, 0.5834985971450806, 0.44302788376808167, 14.994312286376953, 0.9847118258476257, 0.057368941605091095, 0.23335106670856476, 0.07101013511419296, 0.16497108340263367, 0.9993400573730469, 0.9594460725784302, 0.629056453704834
20, 36, 40, 30Perc, first, 1.6726627349853516, 1.7482637166976929, 0.47273221611976624, 0.4515784978866577, 0.4255208671092987, 0.5802236795425415, 0.5834985971450806, 0.44302788376808167, 14.994312286376953, 0.9847118258476257, 0.057368941605091095, 0.23335106670856476, 0.07117734104394913, 0.12657283246517181, 0.9982402324676514, 0.9812067151069641, 0.6317163705825806
20, 36, 79, 30Perc, last, 1.6726627349853516, 1.7482637166976929, 0.47273221611976624, 0.4515784978866577, 0.4255208671092987, 0.5802236795425415, 0.5834985971450806, 0.44302788376808167, 14.994312286376953, 0.9847118258476257, 0.057368941605091095, 0.23335106670856476, 0.05249404534697533, 0.11154788732528687, 0.9970303773880005, 0.9782393574714661, 0.6418725848197937
20, 36, 38, 30Perc, first_last, 1.6726627349853516, 1.7482637166976929, 0.47273221611976624, 0.4515784978866577, 0.4255208671092987, 0.5802236795425415, 0.5834985971450806, 0.44302788376808167, 14.994312286376953, 0.9847118258476257, 0.057368941605091095, 0.23335106670856476, 0.07376004755496979, 0.13232210278511047, 0.9979102611541748, 0.9732937812805176, 0.6273154020309448
20, 36, 11, 30Perc, new, 1.6726627349853516, 1.7482637166976929, 0.47273221611976624, 0.4515784978866577, 0.4255208671092987, 0.5802236795425415, 0.5834985971450806, 0.44302788376808167, 14.994312286376953, 0.9847118258476257, 0.057368941605091095, 0.23335106670856476, 2.8785908222198486, 2.890944719314575, 0.10668719559907913, 0.10484668612480164, 0.10112685710191727
20, 36, 30, 16Perc, all, 1.6726627349853516, 1.7482637166976929, 0.47273221611976624, 0.4515784978866577, 0.4255208671092987, 0.6088538765907288, 0.5778655409812927, 0.5693628787994385, 15.033226013183594, 0.9952830076217651, 0.05050504952669144, 0.18975728750228882, 0.09568487107753754, 0.32592424750328064, 0.9982030391693115, 0.9252524971961975, 0.5725622177124023
20, 36, 46, 16Perc, first, 1.6726627349853516, 1.7482637166976929, 0.47273221611976624, 0.4515784978866577, 0.4255208671092987, 0.6088538765907288, 0.5778655409812927, 0.5693628787994385, 15.033226013183594, 0.9952830076217651, 0.05050504952669144, 0.18975728750228882, 0.07602770626544952, 0.28514283895492554, 1.0, 0.9353535175323486, 0.5695428252220154
20, 36, 45, 16Perc, last, 1.6726627349853516, 1.7482637166976929, 0.47273221611976624, 0.4515784978866577, 0.4255208671092987, 0.6088538765907288, 0.5778655409812927, 0.5693628787994385, 15.033226013183594, 0.9952830076217651, 0.05050504952669144, 0.18975728750228882, 0.07852999120950699, 0.33185485005378723, 0.9991015195846558, 0.9252524971961975, 0.5738009810447693
20, 36, 40, 16Perc, first_last, 1.6726627349853516, 1.7482637166976929, 0.47273221611976624, 0.4515784978866577, 0.4255208671092987, 0.6088538765907288, 0.5778655409812927, 0.5693628787994385, 15.033226013183594, 0.9952830076217651, 0.05050504952669144, 0.18975728750228882, 0.0842122808098793, 0.30152657628059387, 0.9988769292831421, 0.9212121367454529, 0.5732977390289307
20, 36, 12, 16Perc, new, 1.6726627349853516, 1.7482637166976929, 0.47273221611976624, 0.4515784978866577, 0.4255208671092987, 0.6088538765907288, 0.5778655409812927, 0.5693628787994385, 15.033226013183594, 0.9952830076217651, 0.05050504952669144, 0.18975728750228882, 2.9114606380462646, 2.916233539581299, 0.10624438524246216, 0.09494949132204056, 0.10246583819389343
20, 36, 37, fiveMovements, all, 1.6726627349853516, 1.7482637166976929, 0.47273221611976624, 0.4515784978866577, 0.4255208671092987, 0.5291479825973511, 0.5856789350509644, 0.8918223977088928, 5.685791015625, 0.9992877244949341, 0.15923567116260529, 0.12561862170696259, 0.09714750200510025, 0.1301622837781906, 1.0, 0.987261176109314, 0.19536808133125305
20, 36, 35, fiveMovements, first, 1.6726627349853516, 1.7482637166976929, 0.47273221611976624, 0.4515784978866577, 0.4255208671092987, 0.5291479825973511, 0.5856789350509644, 0.8918223977088928, 5.685791015625, 0.9992877244949341, 0.15923567116260529, 0.12561862170696259, 0.0987047404050827, 0.11472857743501663, 1.0, 0.993630588054657, 0.1900324821472168
20, 36, 37, fiveMovements, last, 1.6726627349853516, 1.7482637166976929, 0.47273221611976624, 0.4515784978866577, 0.4255208671092987, 0.5291479825973511, 0.5856789350509644, 0.8918223977088928, 5.685791015625, 0.9992877244949341, 0.15923567116260529, 0.12561862170696259, 0.09720168262720108, 0.1155884638428688, 1.0, 0.993630588054657, 0.1935122162103653
20, 36, 38, fiveMovements, first_last, 1.6726627349853516, 1.7482637166976929, 0.47273221611976624, 0.4515784978866577, 0.4255208671092987, 0.5291479825973511, 0.5856789350509644, 0.8918223977088928, 5.685791015625, 0.9992877244949341, 0.15923567116260529, 0.12561862170696259, 0.09780243784189224, 0.12041620165109634, 0.9992877244949341, 0.987261176109314, 0.19471079111099243
20, 36, 17, fiveMovements, new, 1.6726627349853516, 1.7482637166976929, 0.47273221611976624, 0.4515784978866577, 0.4255208671092987, 0.5291479825973511, 0.5856789350509644, 0.8918223977088928, 5.685791015625, 0.9992877244949341, 0.15923567116260529, 0.12561862170696259, 2.728834867477417, 2.699580430984497, 0.19088318943977356, 0.2165605127811432, 0.051345501095056534
20, 36, 11, oneMovement, all, 1.6726627349853516, 1.7482637166976929, 0.47273221611976624, 0.4515784978866577, 0.4255208671092987, 0.994535505771637, 0.5879601240158081, 1.1397590637207031, 1.131026029586792, 1.0, 1.0, 0.0380064956843853, 0.22123567759990692, 0.10392305254936218, 0.9756097793579102, 1.0, 0.590627908706665
20, 36, 11, oneMovement, first, 1.6726627349853516, 1.7482637166976929, 0.47273221611976624, 0.4515784978866577, 0.4255208671092987, 0.994535505771637, 0.5879601240158081, 1.1397590637207031, 1.131026029586792, 1.0, 1.0, 0.0380064956843853, 0.18524545431137085, 0.10380787402391434, 0.9878048896789551, 1.0, 0.5909371972084045
20, 36, 11, oneMovement, last, 1.6726627349853516, 1.7482637166976929, 0.47273221611976624, 0.4515784978866577, 0.4255208671092987, 0.994535505771637, 0.5879601240158081, 1.1397590637207031, 1.131026029586792, 1.0, 1.0, 0.0380064956843853, 0.2224087119102478, 0.10376045107841492, 0.9756097793579102, 1.0, 0.5900479555130005
20, 36, 11, oneMovement, first_last, 1.6726627349853516, 1.7482637166976929, 0.47273221611976624, 0.4515784978866577, 0.4255208671092987, 0.994535505771637, 0.5879601240158081, 1.1397590637207031, 1.131026029586792, 1.0, 1.0, 0.0380064956843853, 0.20214231312274933, 0.10395918041467667, 0.9878048896789551, 1.0, 0.5895839929580688
20, 36, 13, oneMovement, new, 1.6726627349853516, 1.7482637166976929, 0.47273221611976624, 0.4515784978866577, 0.4255208671092987, 0.994535505771637, 0.5879601240158081, 1.1397590637207031, 1.131026029586792, 1.0, 1.0, 0.0380064956843853, 4.310881614685059, 4.2047834396362305, 1.0, 1.0, 0.0380064956843853
21, 47, 38, 83Perc, all, 1.6527296304702759, 1.7483636140823364, 0.4794848561286926, 0.4516156017780304, 0.43281975388526917, 0.633249044418335, 0.527584969997406, 0.11231524497270584, 0.25593581795692444, 0.9930625557899475, 0.9344132542610168, 0.6273291707038879, 0.09281069785356522, 0.11304524540901184, 0.9924039244651794, 0.9865666031837463, 0.6709901094436646
21, 47, 30, 83Perc, first, 1.6527296304702759, 1.7483636140823364, 0.4794848561286926, 0.4516156017780304, 0.43281975388526917, 0.633249044418335, 0.527584969997406, 0.11231524497270584, 0.25593581795692444, 0.9930625557899475, 0.9344132542610168, 0.6273291707038879, 0.09603182971477509, 0.1341204047203064, 0.9916136264801025, 0.9806400537490845, 0.6874315142631531
21, 47, 33, 83Perc, last, 1.6527296304702759, 1.7483636140823364, 0.4794848561286926, 0.4516156017780304, 0.43281975388526917, 0.633249044418335, 0.527584969997406, 0.11231524497270584, 0.25593581795692444, 0.9930625557899475, 0.9344132542610168, 0.6273291707038879, 0.09536518901586533, 0.12351516634225845, 0.9920966029167175, 0.9786645770072937, 0.6912677884101868
21, 47, 30, 83Perc, first_last, 1.6527296304702759, 1.7483636140823364, 0.4794848561286926, 0.4516156017780304, 0.43281975388526917, 0.633249044418335, 0.527584969997406, 0.11231524497270584, 0.25593581795692444, 0.9930625557899475, 0.9344132542610168, 0.6273291707038879, 0.10161727666854858, 0.13368619978427887, 0.989945113658905, 0.979454755783081, 0.6819510459899902
21, 47, 11, 83Perc, new, 1.6527296304702759, 1.7483636140823364, 0.4794848561286926, 0.4516156017780304, 0.43281975388526917, 0.633249044418335, 0.527584969997406, 0.11231524497270584, 0.25593581795692444, 0.9930625557899475, 0.9344132542610168, 0.6273291707038879, 2.8551955223083496, 2.8608646392822266, 0.10652031004428864, 0.10904780775308609, 0.08494701981544495
21, 47, 39, 60Perc, all, 1.6527296304702759, 1.7483636140823364, 0.4794848561286926, 0.4516156017780304, 0.43281975388526917, 0.6149105429649353, 0.5721388459205627, 0.10665230453014374, 0.31977578997612, 0.9927104115486145, 0.9204771518707275, 0.6344277858734131, 0.0808693990111351, 0.10284899920225143, 0.9950298070907593, 0.987574577331543, 0.696998119354248
21, 47, 47, 60Perc, first, 1.6527296304702759, 1.7483636140823364, 0.4794848561286926, 0.4516156017780304, 0.43281975388526917, 0.6149105429649353, 0.5721388459205627, 0.10665230453014374, 0.31977578997612, 0.9927104115486145, 0.9204771518707275, 0.6344277858734131, 0.10049723833799362, 0.14455588161945343, 0.9872432351112366, 0.9691848754882812, 0.6878986954689026
21, 47, 35, 60Perc, last, 1.6527296304702759, 1.7483636140823364, 0.4794848561286926, 0.4516156017780304, 0.43281975388526917, 0.6149105429649353, 0.5721388459205627, 0.10665230453014374, 0.31977578997612, 0.9927104115486145, 0.9204771518707275, 0.6344277858734131, 0.09117787331342697, 0.17384256422519684, 0.9938701391220093, 0.9706759452819824, 0.7035647034645081
21, 47, 43, 60Perc, first_last, 1.6527296304702759, 1.7483636140823364, 0.4794848561286926, 0.4516156017780304, 0.43281975388526917, 0.6149105429649353, 0.5721388459205627, 0.10665230453014374, 0.31977578997612, 0.9927104115486145, 0.9204771518707275, 0.6344277858734131, 0.08630862087011337, 0.10208369791507721, 0.9927656054496765, 0.9840954542160034, 0.7052533030509949
21, 47, 11, 60Perc, new, 1.6527296304702759, 1.7483636140823364, 0.4794848561286926, 0.4516156017780304, 0.43281975388526917, 0.6149105429649353, 0.5721388459205627, 0.10665230453014374, 0.31977578997612, 0.9927104115486145, 0.9204771518707275, 0.6344277858734131, 2.864396333694458, 2.8609185218811035, 0.10680362582206726, 0.11182902753353119, 0.09455909579992294
21, 47, 45, 30Perc, all, 1.6527296304702759, 1.7483636140823364, 0.4794848561286926, 0.4516156017780304, 0.43281975388526917, 0.5822033286094666, 0.603424072265625, 0.3569459319114685, 13.059741973876953, 0.9875714778900146, 0.11968348175287247, 0.2103303223848343, 0.06991514563560486, 0.10446096211671829, 0.9974703192710876, 0.9841740727424622, 0.6635391712188721
21, 47, 32, 30Perc, first, 1.6527296304702759, 1.7483636140823364, 0.4794848561286926, 0.4516156017780304, 0.43281975388526917, 0.5822033286094666, 0.603424072265625, 0.3569459319114685, 13.059741973876953, 0.9875714778900146, 0.11968348175287247, 0.2103303223848343, 0.08461202681064606, 0.11145937442779541, 0.9975802898406982, 0.9881305694580078, 0.6629588603973389
21, 47, 54, 30Perc, last, 1.6527296304702759, 1.7483636140823364, 0.4794848561286926, 0.4516156017780304, 0.43281975388526917, 0.5822033286094666, 0.603424072265625, 0.3569459319114685, 13.059741973876953, 0.9875714778900146, 0.11968348175287247, 0.2103303223848343, 0.06091295927762985, 0.09333407133817673, 0.9978002905845642, 0.9891197085380554, 0.6561880111694336
21, 47, 64, 30Perc, first_last, 1.6527296304702759, 1.7483636140823364, 0.4794848561286926, 0.4516156017780304, 0.43281975388526917, 0.5822033286094666, 0.603424072265625, 0.3569459319114685, 13.059741973876953, 0.9875714778900146, 0.11968348175287247, 0.2103303223848343, 0.06060769036412239, 0.08506961911916733, 0.9976902604103088, 0.9930761456489563, 0.6759684681892395
21, 47, 11, 30Perc, new, 1.6527296304702759, 1.7483636140823364, 0.4794848561286926, 0.4516156017780304, 0.43281975388526917, 0.5822033286094666, 0.603424072265625, 0.3569459319114685, 13.059741973876953, 0.9875714778900146, 0.11968348175287247, 0.2103303223848343, 2.8831100463867188, 2.878899574279785, 0.10624725371599197, 0.1088031679391861, 0.10112685710191727
21, 47, 41, 16Perc, all, 1.6527296304702759, 1.7483636140823364, 0.4794848561286926, 0.4516156017780304, 0.43281975388526917, 0.6141095757484436, 0.5947818756103516, 0.5737409591674805, 9.87820816040039, 0.9907906651496887, 0.07878787815570831, 0.19537025690078735, 0.08361189067363739, 0.1325349509716034, 0.9997754096984863, 0.9818181991577148, 0.5766655206680298
21, 47, 37, 16Perc, first, 1.6527296304702759, 1.7483636140823364, 0.4794848561286926, 0.4516156017780304, 0.43281975388526917, 0.6141095757484436, 0.5947818756103516, 0.5737409591674805, 9.87820816040039, 0.9907906651496887, 0.07878787815570831, 0.19537025690078735, 0.08840655535459518, 0.18412581086158752, 0.9993261694908142, 0.9575757384300232, 0.5743429064750671
21, 47, 45, 16Perc, last, 1.6527296304702759, 1.7483636140823364, 0.4794848561286926, 0.4516156017780304, 0.43281975388526917, 0.6141095757484436, 0.5947818756103516, 0.5737409591674805, 9.87820816040039, 0.9907906651496887, 0.07878787815570831, 0.19537025690078735, 0.07997389137744904, 0.14383995532989502, 0.9982030391693115, 0.9717171788215637, 0.5750783681869507
21, 47, 30, 16Perc, first_last, 1.6527296304702759, 1.7483636140823364, 0.4794848561286926, 0.4516156017780304, 0.43281975388526917, 0.6141095757484436, 0.5947818756103516, 0.5737409591674805, 9.87820816040039, 0.9907906651496887, 0.07878787815570831, 0.19537025690078735, 0.09640009701251984, 0.20114704966545105, 0.9988769292831421, 0.9555555582046509, 0.562187910079956
21, 47, 12, 16Perc, new, 1.6527296304702759, 1.7483636140823364, 0.4794848561286926, 0.4516156017780304, 0.43281975388526917, 0.6141095757484436, 0.5947818756103516, 0.5737409591674805, 9.87820816040039, 0.9907906651496887, 0.07878787815570831, 0.19537025690078735, 2.916414976119995, 2.9031853675842285, 0.10242587327957153, 0.12929293513298035, 0.10246583819389343
21, 47, 32, fiveMovements, all, 1.6527296304702759, 1.7483636140823364, 0.4794848561286926, 0.4516156017780304, 0.43281975388526917, 0.5387572050094604, 0.6064413785934448, 0.49153515696525574, 2.436251163482666, 1.0, 0.5859872698783875, 0.1443318873643875, 0.10365534573793411, 0.11484091728925705, 1.0, 0.993630588054657, 0.19803588092327118
21, 47, 39, fiveMovements, first, 1.6527296304702759, 1.7483636140823364, 0.4794848561286926, 0.4516156017780304, 0.43281975388526917, 0.5387572050094604, 0.6064413785934448, 0.49153515696525574, 2.436251163482666, 1.0, 0.5859872698783875, 0.1443318873643875, 0.10207125544548035, 0.1222710907459259, 0.997863233089447, 0.993630588054657, 0.1966826468706131
21, 47, 36, fiveMovements, last, 1.6527296304702759, 1.7483636140823364, 0.4794848561286926, 0.4516156017780304, 0.43281975388526917, 0.5387572050094604, 0.6064413785934448, 0.49153515696525574, 2.436251163482666, 1.0, 0.5859872698783875, 0.1443318873643875, 0.10238049924373627, 0.11527655273675919, 0.9992877244949341, 0.993630588054657, 0.198267862200737
21, 47, 40, fiveMovements, first_last, 1.6527296304702759, 1.7483636140823364, 0.4794848561286926, 0.4516156017780304, 0.43281975388526917, 0.5387572050094604, 0.6064413785934448, 0.49153515696525574, 2.436251163482666, 1.0, 0.5859872698783875, 0.1443318873643875, 0.09927768260240555, 0.11849388480186462, 1.0, 0.993630588054657, 0.20283019542694092
21, 47, 12, fiveMovements, new, 1.6527296304702759, 1.7483636140823364, 0.4794848561286926, 0.4516156017780304, 0.43281975388526917, 0.5387572050094604, 0.6064413785934448, 0.49153515696525574, 2.436251163482666, 1.0, 0.5859872698783875, 0.1443318873643875, 3.1032140254974365, 3.029500961303711, 0.19301994144916534, 0.19745223224163055, 0.051345501095056534
21, 47, 15, oneMovement, all, 1.6527296304702759, 1.7483636140823364, 0.4794848561286926, 0.4516156017780304, 0.43281975388526917, 0.868852436542511, 0.6103077530860901, 1.1198006868362427, 1.1021991968154907, 1.0, 1.0, 0.0380064956843853, 0.11459336429834366, 0.10977618396282196, 1.0, 1.0, 0.4872022867202759
21, 47, 15, oneMovement, first, 1.6527296304702759, 1.7483636140823364, 0.4794848561286926, 0.4516156017780304, 0.43281975388526917, 0.868852436542511, 0.6103077530860901, 1.1198006868362427, 1.1021991968154907, 1.0, 1.0, 0.0380064956843853, 0.13658428192138672, 0.1096486821770668, 1.0, 1.0, 0.46806371212005615
21, 47, 15, oneMovement, last, 1.6527296304702759, 1.7483636140823364, 0.4794848561286926, 0.4516156017780304, 0.43281975388526917, 0.868852436542511, 0.6103077530860901, 1.1198006868362427, 1.1021991968154907, 1.0, 1.0, 0.0380064956843853, 0.11616024374961853, 0.10941337049007416, 1.0, 1.0, 0.49110734462738037
21, 47, 15, oneMovement, first_last, 1.6527296304702759, 1.7483636140823364, 0.4794848561286926, 0.4516156017780304, 0.43281975388526917, 0.868852436542511, 0.6103077530860901, 1.1198006868362427, 1.1021991968154907, 1.0, 1.0, 0.0380064956843853, 0.12473896145820618, 0.10924142599105835, 0.9939024448394775, 1.0, 0.48990875482559204
21, 47, 19, oneMovement, new, 1.6527296304702759, 1.7483636140823364, 0.4794848561286926, 0.4516156017780304, 0.43281975388526917, 0.868852436542511, 0.6103077530860901, 1.1198006868362427, 1.1021991968154907, 1.0, 1.0, 0.0380064956843853, 3.846576690673828, 3.764561653137207, 1.0, 1.0, 0.0380064956843853
22, 58, 35, 83Perc, all, 1.6598796844482422, 1.744588017463684, 0.4790096580982208, 0.456142783164978, 0.4343497157096863, 0.6100924611091614, 0.4672999680042267, 0.14352667331695557, 0.45047199726104736, 0.980461061000824, 0.8747530579566956, 0.6322615742683411, 0.10696235299110413, 0.14101411402225494, 0.9891547560691833, 0.9755037426948547, 0.6638655662536621
22, 58, 38, 83Perc, first, 1.6598796844482422, 1.744588017463684, 0.4790096580982208, 0.456142783164978, 0.4343497157096863, 0.6100924611091614, 0.4672999680042267, 0.14352667331695557, 0.45047199726104736, 0.980461061000824, 0.8747530579566956, 0.6322615742683411, 0.0960964486002922, 0.13379283249378204, 0.9917892217636108, 0.979454755783081, 0.6779320240020752
