subject,train_epochs,retraining_epochs,retraining_samples,retraining_method,train_loss,val_loss,train_accuracy,val_accuracy,test_accuracy,pre_retraining_train_accuracy,pre_retraining_test_accuracy,new_train_loss,new_val_loss,new_train_accuracy,new_val_accuracy,new_test_accuracy,r_train_loss,r_val_loss,r_train_accuracy,r_val_accuracy,r_test_accuracy
1, 39, 36, 83Perc, all, 1.7090659141540527, 1.9695892333984375, 0.4597824811935425, 0.38161683082580566, 0.2785458266735077, 0.690686047077179, 0.4451552629470825, 0.17669889330863953, 0.518898069858551, 0.9808024168014526, 0.8630744814872742, 0.5181775689125061, 0.15666790306568146, 0.33025923371315, 0.9822466373443604, 0.9188589453697205, 0.5261351466178894
1, 39, 28, 83Perc, first, 1.7090659141540527, 1.9695892333984375, 0.4597824811935425, 0.38161683082580566, 0.2785458266735077, 0.690686047077179, 0.4451552629470825, 0.17669889330863953, 0.518898069858551, 0.9808024168014526, 0.8630744814872742, 0.5181775689125061, 0.18453024327754974, 0.33022573590278625, 0.9752016663551331, 0.9258320331573486, 0.5556249022483826
1, 39, 38, 83Perc, last, 1.7090659141540527, 1.9695892333984375, 0.4597824811935425, 0.38161683082580566, 0.2785458266735077, 0.690686047077179, 0.4451552629470825, 0.17669889330863953, 0.518898069858551, 0.9808024168014526, 0.8630744814872742, 0.5181775689125061, 0.1508323848247528, 0.36997297406196594, 0.9846771359443665, 0.9033280611038208, 0.5237946510314941
1, 39, 36, 83Perc, first_last, 1.7090659141540527, 1.9695892333984375, 0.4597824811935425, 0.38161683082580566, 0.2785458266735077, 0.690686047077179, 0.4451552629470825, 0.17669889330863953, 0.518898069858551, 0.9808024168014526, 0.8630744814872742, 0.5181775689125061, 0.1682925820350647, 0.3832027316093445, 0.9784071445465088, 0.9074484705924988, 0.5447027683258057
1, 39, 11, 83Perc, new, 1.7090659141540527, 1.9695892333984375, 0.4597824811935425, 0.38161683082580566, 0.2785458266735077, 0.690686047077179, 0.4451552629470825, 0.17669889330863953, 0.518898069858551, 0.9808024168014526, 0.8630744814872742, 0.5181775689125061, 2.8668320178985596, 2.866311550140381, 0.07788227498531342, 0.08019017428159714, 0.06818536669015884
1, 39, 41, 60Perc, all, 1.7090659141540527, 1.9695892333984375, 0.4597824811935425, 0.38161683082580566, 0.2785458266735077, 0.6449174880981445, 0.5485804677009583, 0.1405445784330368, 0.5096591711044312, 0.9911189079284668, 0.8726266026496887, 0.4814668893814087, 0.13951905071735382, 0.31865477561950684, 0.9857990741729736, 0.9216772317886353, 0.5446372032165527
1, 39, 40, 60Perc, first, 1.7090659141540527, 1.9695892333984375, 0.4597824811935425, 0.38161683082580566, 0.2785458266735077, 0.6449174880981445, 0.5485804677009583, 0.1405445784330368, 0.5096591711044312, 0.9911189079284668, 0.8726266026496887, 0.4814668893814087, 0.14362086355686188, 0.28204986453056335, 0.9853154420852661, 0.9347310066223145, 0.5268138647079468
1, 39, 43, 60Perc, last, 1.7090659141540527, 1.9695892333984375, 0.4597824811935425, 0.38161683082580566, 0.2785458266735077, 0.6449174880981445, 0.5485804677009583, 0.1405445784330368, 0.5096591711044312, 0.9911189079284668, 0.8726266026496887, 0.4814668893814087, 0.1325223445892334, 0.3447359800338745, 0.9874258041381836, 0.9149525165557861, 0.5260252356529236
1, 39, 40, 60Perc, first_last, 1.7090659141540527, 1.9695892333984375, 0.4597824811935425, 0.38161683082580566, 0.2785458266735077, 0.6449174880981445, 0.5485804677009583, 0.1405445784330368, 0.5096591711044312, 0.9911189079284668, 0.8726266026496887, 0.4814668893814087, 0.1486569046974182, 0.31724822521209717, 0.982853353023529, 0.9165347814559937, 0.5189274549484253
1, 39, 12, 60Perc, new, 1.7090659141540527, 1.9695892333984375, 0.4597824811935425, 0.38161683082580566, 0.2785458266735077, 0.6449174880981445, 0.5485804677009583, 0.1405445784330368, 0.5096591711044312, 0.9911189079284668, 0.8726266026496887, 0.4814668893814087, 2.870661497116089, 2.873351573944092, 0.0762365385890007, 0.07990506291389465, 0.07831230014562607
1, 39, 35, 30Perc, all, 1.7090659141540527, 1.9695892333984375, 0.4597824811935425, 0.38161683082580566, 0.2785458266735077, 0.6629009246826172, 0.5862818956375122, 0.38057181239128113, 13.110408782958984, 0.9818293452262878, 0.12085308134555817, 0.1870725452899933, 0.12046582251787186, 0.2137545645236969, 0.9915730357170105, 0.9510268568992615, 0.45657244324684143
1, 39, 35, 30Perc, first, 1.7090659141540527, 1.9695892333984375, 0.4597824811935425, 0.38161683082580566, 0.2785458266735077, 0.6629009246826172, 0.5862818956375122, 0.38057181239128113, 13.110408782958984, 0.9818293452262878, 0.12085308134555817, 0.1870725452899933, 0.10541749000549316, 0.2163815200328827, 0.995874285697937, 0.9510268568992615, 0.45688870549201965
1, 39, 51, 30Perc, last, 1.7090659141540527, 1.9695892333984375, 0.4597824811935425, 0.38161683082580566, 0.2785458266735077, 0.6629009246826172, 0.5862818956375122, 0.38057181239128113, 13.110408782958984, 0.9818293452262878, 0.12085308134555817, 0.1870725452899933, 0.08956500142812729, 0.15543843805789948, 0.9942942261695862, 0.9668246507644653, 0.45566317439079285
1, 39, 32, 30Perc, first_last, 1.7090659141540527, 1.9695892333984375, 0.4597824811935425, 0.38161683082580566, 0.2785458266735077, 0.6629009246826172, 0.5862818956375122, 0.38057181239128113, 13.110408782958984, 0.9818293452262878, 0.12085308134555817, 0.1870725452899933, 0.12171141058206558, 0.19262826442718506, 0.9916608333587646, 0.9612954258918762, 0.46341174840927124
1, 39, 11, 30Perc, new, 1.7090659141540527, 1.9695892333984375, 0.4597824811935425, 0.38161683082580566, 0.2785458266735077, 0.6629009246826172, 0.5862818956375122, 0.38057181239128113, 13.110408782958984, 0.9818293452262878, 0.12085308134555817, 0.1870725452899933, 2.901163101196289, 2.9072659015655518, 0.0871664360165596, 0.0703001543879509, 0.07187191396951675
1, 39, 36, 16Perc, all, 1.7090659141540527, 1.9695892333984375, 0.4597824811935425, 0.38161683082580566, 0.2785458266735077, 0.6749770641326904, 0.589145302772522, 0.4256770610809326, 13.83000373840332, 0.9943915605545044, 0.07186544686555862, 0.1710011214017868, 0.10598535090684891, 0.1996479630470276, 0.9974507093429565, 0.9648318290710449, 0.4616266191005707
1, 39, 49, 16Perc, first, 1.7090659141540527, 1.9695892333984375, 0.4597824811935425, 0.38161683082580566, 0.2785458266735077, 0.6749770641326904, 0.589145302772522, 0.4256770610809326, 13.83000373840332, 0.9943915605545044, 0.07186544686555862, 0.1710011214017868, 0.08949586004018784, 0.14633455872535706, 0.998810350894928, 0.9785932898521423, 0.4534776508808136
1, 39, 27, 16Perc, last, 1.7090659141540527, 1.9695892333984375, 0.4597824811935425, 0.38161683082580566, 0.2785458266735077, 0.6749770641326904, 0.589145302772522, 0.4256770610809326, 13.83000373840332, 0.9943915605545044, 0.07186544686555862, 0.1710011214017868, 0.122678741812706, 0.21606609225273132, 0.9959211349487305, 0.9510703086853027, 0.4669743776321411
1, 39, 34, 16Perc, first_last, 1.7090659141540527, 1.9695892333984375, 0.4597824811935425, 0.38161683082580566, 0.2785458266735077, 0.6749770641326904, 0.589145302772522, 0.4256770610809326, 13.83000373840332, 0.9943915605545044, 0.07186544686555862, 0.1710011214017868, 0.10954548418521881, 0.3073666989803314, 0.9981305003166199, 0.9189602732658386, 0.46987107396125793
1, 39, 13, 16Perc, new, 1.7090659141540527, 1.9695892333984375, 0.4597824811935425, 0.38161683082580566, 0.2785458266735077, 0.6749770641326904, 0.589145302772522, 0.4256770610809326, 13.83000373840332, 0.9943915605545044, 0.07186544686555862, 0.1710011214017868, 2.9152491092681885, 2.9229605197906494, 0.08548606187105179, 0.06727828830480576, 0.07582364976406097
1, 39, 53, fiveMovements, all, 1.7090659141540527, 1.9695892333984375, 0.4597824811935425, 0.38161683082580566, 0.2785458266735077, 0.6689287424087524, 0.5859469175338745, 0.7100474834442139, 18.202682495117188, 1.0, 0.14492753148078918, 0.10064626485109329, 0.10655315220355988, 0.1260884702205658, 0.9994612336158752, 0.9951691031455994, 0.20940251648426056
1, 39, 57, fiveMovements, first, 1.7090659141540527, 1.9695892333984375, 0.4597824811935425, 0.38161683082580566, 0.2785458266735077, 0.6689287424087524, 0.5859469175338745, 0.7100474834442139, 18.202682495117188, 1.0, 0.14492753148078918, 0.10064626485109329, 0.10754507780075073, 0.15803271532058716, 0.9989224076271057, 0.9710144996643066, 0.2096242755651474
1, 39, 52, fiveMovements, last, 1.7090659141540527, 1.9695892333984375, 0.4597824811935425, 0.38161683082580566, 0.2785458266735077, 0.6689287424087524, 0.5859469175338745, 0.7100474834442139, 18.202682495117188, 1.0, 0.14492753148078918, 0.10064626485109329, 0.10698938369750977, 0.16577662527561188, 1.0, 0.9806763529777527, 0.20747005939483643
1, 39, 61, fiveMovements, first_last, 1.7090659141540527, 1.9695892333984375, 0.4597824811935425, 0.38161683082580566, 0.2785458266735077, 0.6689287424087524, 0.5859469175338745, 0.7100474834442139, 18.202682495117188, 1.0, 0.14492753148078918, 0.10064626485109329, 0.10167033225297928, 0.16612035036087036, 1.0, 0.9806763529777527, 0.20794525742530823
1, 39, 11, fiveMovements, new, 1.7090659141540527, 1.9695892333984375, 0.4597824811935425, 0.38161683082580566, 0.2785458266735077, 0.6689287424087524, 0.5859469175338745, 0.7100474834442139, 18.202682495117188, 1.0, 0.14492753148078918, 0.10064626485109329, 2.903978109359741, 2.840535879135132, 0.2235991358757019, 0.2801932394504547, 0.06199708580970764
1, 39, 21, oneMovement, all, 1.7090659141540527, 1.9695892333984375, 0.4597824811935425, 0.38161683082580566, 0.2785458266735077, 0.8540540337562561, 0.6011042594909668, 1.1668000221252441, 1.196978211402893, 0.9909909963607788, 1.0, 0.07878655940294266, 0.12843194603919983, 0.12865471839904785, 1.0, 1.0, 0.0845559760928154
1, 39, 21, oneMovement, first, 1.7090659141540527, 1.9695892333984375, 0.4597824811935425, 0.38161683082580566, 0.2785458266735077, 0.8540540337562561, 0.6011042594909668, 1.1668000221252441, 1.196978211402893, 0.9909909963607788, 1.0, 0.07878655940294266, 0.12822426855564117, 0.1284579336643219, 1.0, 1.0, 0.08449393510818481
1, 39, 21, oneMovement, last, 1.7090659141540527, 1.9695892333984375, 0.4597824811935425, 0.38161683082580566, 0.2785458266735077, 0.8540540337562561, 0.6011042594909668, 1.1668000221252441, 1.196978211402893, 0.9909909963607788, 1.0, 0.07878655940294266, 0.12832044064998627, 0.1285661906003952, 1.0, 1.0, 0.08415273576974869
1, 39, 21, oneMovement, first_last, 1.7090659141540527, 1.9695892333984375, 0.4597824811935425, 0.38161683082580566, 0.2785458266735077, 0.8540540337562561, 0.6011042594909668, 1.1668000221252441, 1.196978211402893, 0.9909909963607788, 1.0, 0.07878655940294266, 0.12843859195709229, 0.12865114212036133, 1.0, 1.0, 0.08424578607082367
1, 39, 12, oneMovement, new, 1.7090659141540527, 1.9695892333984375, 0.4597824811935425, 0.38161683082580566, 0.2785458266735077, 0.8540540337562561, 0.6011042594909668, 1.1668000221252441, 1.196978211402893, 0.9909909963607788, 1.0, 0.07878655940294266, 4.4109883308410645, 4.301628589630127, 1.0, 1.0, 0.07878655940294266
2, 38, 32, 83Perc, all, 1.719894289970398, 2.0345797538757324, 0.4566068649291992, 0.37360697984695435, 0.279893159866333, 0.6896715760231018, 0.40770789980888367, 0.16459821164608002, 0.502042293548584, 0.9873895049095154, 0.8586370944976807, 0.5063192248344421, 0.18557481467723846, 0.36316853761672974, 0.9754130244255066, 0.9115689396858215, 0.5124044418334961
2, 38, 35, 83Perc, first, 1.719894289970398, 2.0345797538757324, 0.4566068649291992, 0.37360697984695435, 0.279893159866333, 0.6896715760231018, 0.40770789980888367, 0.16459821164608002, 0.502042293548584, 0.9873895049095154, 0.8586370944976807, 0.5063192248344421, 0.1572898030281067, 0.3583265542984009, 0.9826693534851074, 0.9150554537773132, 0.5258230566978455
2, 38, 37, 83Perc, last, 1.719894289970398, 2.0345797538757324, 0.4566068649291992, 0.37360697984695435, 0.279893159866333, 0.6896715760231018, 0.40770789980888367, 0.16459821164608002, 0.502042293548584, 0.9873895049095154, 0.8586370944976807, 0.5063192248344421, 0.16175667941570282, 0.3735116422176361, 0.9811899065971375, 0.9030110836029053, 0.5200499296188354
2, 38, 37, 83Perc, first_last, 1.719894289970398, 2.0345797538757324, 0.4566068649291992, 0.37360697984695435, 0.279893159866333, 0.6896715760231018, 0.40770789980888367, 0.16459821164608002, 0.502042293548584, 0.9873895049095154, 0.8586370944976807, 0.5063192248344421, 0.15680243074893951, 0.37490490078926086, 0.9822114109992981, 0.9033280611038208, 0.5476673245429993
2, 38, 11, 83Perc, new, 1.719894289970398, 2.0345797538757324, 0.4566068649291992, 0.37360697984695435, 0.279893159866333, 0.6896715760231018, 0.40770789980888367, 0.16459821164608002, 0.502042293548584, 0.9873895049095154, 0.8586370944976807, 0.5063192248344421, 2.8660638332366943, 2.8669283390045166, 0.07848110049962997, 0.07480189949274063, 0.06818536669015884
2, 38, 36, 60Perc, all, 1.719894289970398, 2.0345797538757324, 0.4566068649291992, 0.37360697984695435, 0.279893159866333, 0.6353024840354919, 0.5429022312164307, 0.14775817096233368, 0.5350634455680847, 0.9910749793052673, 0.861155092716217, 0.46017348766326904, 0.14903636276721954, 0.28539779782295227, 0.9850077033042908, 0.9335442781448364, 0.5038643479347229
2, 38, 34, 60Perc, first, 1.719894289970398, 2.0345797538757324, 0.4566068649291992, 0.37360697984695435, 0.279893159866333, 0.6353024840354919, 0.5429022312164307, 0.14775817096233368, 0.5350634455680847, 0.9910749793052673, 0.861155092716217, 0.46017348766326904, 0.1490963250398636, 0.2925914525985718, 0.9831171631813049, 0.9331487417221069, 0.5027602314949036
2, 38, 35, 60Perc, last, 1.719894289970398, 2.0345797538757324, 0.4566068649291992, 0.37360697984695435, 0.279893159866333, 0.6353024840354919, 0.5429022312164307, 0.14775817096233368, 0.5350634455680847, 0.9910749793052673, 0.861155092716217, 0.46017348766326904, 0.15088196098804474, 0.340532124042511, 0.9840404391288757, 0.9153481125831604, 0.534305989742279
2, 38, 27, 60Perc, first_last, 1.719894289970398, 2.0345797538757324, 0.4566068649291992, 0.37360697984695435, 0.279893159866333, 0.6353024840354919, 0.5429022312164307, 0.14775817096233368, 0.5350634455680847, 0.9910749793052673, 0.861155092716217, 0.46017348766326904, 0.1649351269006729, 0.3008638620376587, 0.9810947179794312, 0.9264240264892578, 0.5185331106185913
2, 38, 13, 60Perc, new, 1.719894289970398, 2.0345797538757324, 0.4566068649291992, 0.37360697984695435, 0.279893159866333, 0.6353024840354919, 0.5429022312164307, 0.14775817096233368, 0.5350634455680847, 0.9910749793052673, 0.861155092716217, 0.46017348766326904, 2.866086721420288, 2.869306802749634, 0.0753132551908493, 0.0735759511590004, 0.07831230014562607
2, 38, 51, 30Perc, all, 1.719894289970398, 2.0345797538757324, 0.4566068649291992, 0.37360697984695435, 0.279893159866333, 0.6531047821044922, 0.5731567740440369, 0.3931814134120941, 24.213350296020508, 0.9778792262077332, 0.06398104131221771, 0.12468867003917694, 0.09508680552244186, 0.12471111118793488, 0.994645357131958, 0.9834123253822327, 0.4455426037311554
2, 38, 44, 30Perc, first, 1.719894289970398, 2.0345797538757324, 0.4566068649291992, 0.37360697984695435, 0.279893159866333, 0.6531047821044922, 0.5731567740440369, 0.3931814134120941, 24.213350296020508, 0.9778792262077332, 0.06398104131221771, 0.12468867003917694, 0.09909520298242569, 0.1662834733724594, 0.9949086904525757, 0.9707741141319275, 0.4576398432254791
2, 38, 43, 30Perc, last, 1.719894289970398, 2.0345797538757324, 0.4566068649291992, 0.37360697984695435, 0.279893159866333, 0.6531047821044922, 0.5731567740440369, 0.3931814134120941, 24.213350296020508, 0.9778792262077332, 0.06398104131221771, 0.12468867003917694, 0.10284296423196793, 0.13448891043663025, 0.9935920238494873, 0.9818325638771057, 0.44965407252311707
2, 38, 37, 30Perc, first_last, 1.719894289970398, 2.0345797538757324, 0.4566068649291992, 0.37360697984695435, 0.279893159866333, 0.6531047821044922, 0.5731567740440369, 0.3931814134120941, 24.213350296020508, 0.9778792262077332, 0.06398104131221771, 0.12468867003917694, 0.10854784399271011, 0.16328299045562744, 0.9941186904907227, 0.9739336371421814, 0.45514923334121704
2, 38, 11, 30Perc, new, 1.719894289970398, 2.0345797538757324, 0.4566068649291992, 0.37360697984695435, 0.279893159866333, 0.6531047821044922, 0.5731567740440369, 0.3931814134120941, 24.213350296020508, 0.9778792262077332, 0.06398104131221771, 0.12468867003917694, 2.90067720413208, 2.9032986164093018, 0.08549859374761581, 0.08530806005001068, 0.07187191396951675
2, 38, 41, 16Perc, all, 1.719894289970398, 2.0345797538757324, 0.4566068649291992, 0.37360697984695435, 0.279893159866333, 0.6532579064369202, 0.5906732678413391, 0.19204218685626984, 8.480693817138672, 0.9993202090263367, 0.1513761430978775, 0.12513130903244019, 0.09870977699756622, 0.1592954397201538, 0.9983004927635193, 0.9709480404853821, 0.46538278460502625
2, 38, 40, 16Perc, first, 1.719894289970398, 2.0345797538757324, 0.4566068649291992, 0.37360697984695435, 0.279893159866333, 0.6532579064369202, 0.5906732678413391, 0.19204218685626984, 8.480693817138672, 0.9993202090263367, 0.1513761430978775, 0.12513130903244019, 0.10058345645666122, 0.23209752142429352, 0.9979605674743652, 0.9525994062423706, 0.4595257043838501
2, 38, 43, 16Perc, last, 1.719894289970398, 2.0345797538757324, 0.4566068649291992, 0.37360697984695435, 0.279893159866333, 0.6532579064369202, 0.5906732678413391, 0.19204218685626984, 8.480693817138672, 0.9993202090263367, 0.1513761430978775, 0.12513130903244019, 0.09671629220247269, 0.19813738763332367, 0.9974507093429565, 0.9602446556091309, 0.4617539346218109
2, 38, 71, 16Perc, first_last, 1.719894289970398, 2.0345797538757324, 0.4566068649291992, 0.37360697984695435, 0.279893159866333, 0.6532579064369202, 0.5906732678413391, 0.19204218685626984, 8.480693817138672, 0.9993202090263367, 0.1513761430978775, 0.12513130903244019, 0.06974721699953079, 0.11274411529302597, 0.9986403584480286, 0.9847095012664795, 0.44949865341186523
2, 38, 11, 16Perc, new, 1.719894289970398, 2.0345797538757324, 0.4566068649291992, 0.37360697984695435, 0.279893159866333, 0.6532579064369202, 0.5906732678413391, 0.19204218685626984, 8.480693817138672, 0.9993202090263367, 0.1513761430978775, 0.12513130903244019, 2.9244329929351807, 2.9231784343719482, 0.084466353058815, 0.0764525979757309, 0.0676746740937233
2, 38, 62, fiveMovements, all, 1.719894289970398, 2.0345797538757324, 0.4566068649291992, 0.37360697984695435, 0.279893159866333, 0.664566159248352, 0.5886079668998718, 0.6523241996765137, 13.28523063659668, 0.9994612336158752, 0.1835748851299286, 0.16036242246627808, 0.10023372620344162, 0.22913500666618347, 1.0, 0.95652174949646, 0.20110245048999786
2, 38, 51, fiveMovements, first, 1.719894289970398, 2.0345797538757324, 0.4566068649291992, 0.37360697984695435, 0.279893159866333, 0.664566159248352, 0.5886079668998718, 0.6523241996765137, 13.28523063659668, 0.9994612336158752, 0.1835748851299286, 0.16036242246627808, 0.10708601772785187, 0.2863321006298065, 0.9994612336158752, 0.9516907930374146, 0.19799785315990448
2, 38, 51, fiveMovements, last, 1.719894289970398, 2.0345797538757324, 0.4566068649291992, 0.37360697984695435, 0.279893159866333, 0.664566159248352, 0.5886079668998718, 0.6523241996765137, 13.28523063659668, 0.9994612336158752, 0.1835748851299286, 0.16036242246627808, 0.10768120735883713, 0.2739122807979584, 0.9989224076271057, 0.9468598961830139, 0.20145092904567719
2, 38, 58, fiveMovements, first_last, 1.719894289970398, 2.0345797538757324, 0.4566068649291992, 0.37360697984695435, 0.279893159866333, 0.664566159248352, 0.5886079668998718, 0.6523241996765137, 13.28523063659668, 0.9994612336158752, 0.1835748851299286, 0.16036242246627808, 0.10545211285352707, 0.22997453808784485, 0.9994612336158752, 0.9613526463508606, 0.19885319471359253
2, 38, 11, fiveMovements, new, 1.719894289970398, 2.0345797538757324, 0.4566068649291992, 0.37360697984695435, 0.279893159866333, 0.664566159248352, 0.5886079668998718, 0.6523241996765137, 13.28523063659668, 0.9994612336158752, 0.1835748851299286, 0.16036242246627808, 2.8874411582946777, 2.8341851234436035, 0.23383620381355286, 0.18840579688549042, 0.07067731022834778
2, 38, 14, oneMovement, all, 1.719894289970398, 2.0345797538757324, 0.4566068649291992, 0.37360697984695435, 0.279893159866333, 0.7810810804367065, 0.5954899191856384, 1.187280535697937, 1.184308648109436, 1.0, 1.0, 0.07878655940294266, 0.12615863978862762, 0.12567222118377686, 1.0, 1.0, 0.4049133062362671
2, 38, 14, oneMovement, first, 1.719894289970398, 2.0345797538757324, 0.4566068649291992, 0.37360697984695435, 0.279893159866333, 0.7810810804367065, 0.5954899191856384, 1.187280535697937, 1.184308648109436, 1.0, 1.0, 0.07878655940294266, 0.12898635864257812, 0.12566308677196503, 1.0, 1.0, 0.4094109535217285
2, 38, 14, oneMovement, last, 1.719894289970398, 2.0345797538757324, 0.4566068649291992, 0.37360697984695435, 0.279893159866333, 0.7810810804367065, 0.5954899191856384, 1.187280535697937, 1.184308648109436, 1.0, 1.0, 0.07878655940294266, 0.1296207755804062, 0.12572580575942993, 1.0, 1.0, 0.39548373222351074
2, 38, 14, oneMovement, first_last, 1.719894289970398, 2.0345797538757324, 0.4566068649291992, 0.37360697984695435, 0.279893159866333, 0.7810810804367065, 0.5954899191856384, 1.187280535697937, 1.184308648109436, 1.0, 1.0, 0.07878655940294266, 0.12970338761806488, 0.12561002373695374, 1.0, 1.0, 0.4061540365219116
2, 38, 16, oneMovement, new, 1.719894289970398, 2.0345797538757324, 0.4566068649291992, 0.37360697984695435, 0.279893159866333, 0.7810810804367065, 0.5954899191856384, 1.187280535697937, 1.184308648109436, 1.0, 1.0, 0.07878655940294266, 4.067305088043213, 3.973808526992798, 1.0, 1.0, 0.07878655940294266
3, 30, 36, 83Perc, all, 1.7467697858810425, 1.9995657205581665, 0.4467446804046631, 0.379202276468277, 0.2805609703063965, 0.6738206744194031, 0.4373537302017212, 0.1579371839761734, 0.47548970580101013, 0.9872133731842041, 0.8741679787635803, 0.5208300948143005, 0.1478021740913391, 0.3217182159423828, 0.9862622618675232, 0.9236133098602295, 0.523014485836029
3, 30, 39, 83Perc, first, 1.7467697858810425, 1.9995657205581665, 0.4467446804046631, 0.379202276468277, 0.2805609703063965, 0.6738206744194031, 0.4373537302017212, 0.1579371839761734, 0.47548970580101013, 0.9872133731842041, 0.8741679787635803, 0.5208300948143005, 0.14536462724208832, 0.30560800433158875, 0.9853816628456116, 0.932805061340332, 0.517553448677063
3, 30, 28, 83Perc, last, 1.7467697858810425, 1.9995657205581665, 0.4467446804046631, 0.379202276468277, 0.2805609703063965, 0.6738206744194031, 0.4373537302017212, 0.1579371839761734, 0.47548970580101013, 0.9872133731842041, 0.8741679787635803, 0.5208300948143005, 0.17596538364887238, 0.3181202709674835, 0.9792525172233582, 0.9274168014526367, 0.5273833870887756
3, 30, 34, 83Perc, first_last, 1.7467697858810425, 1.9995657205581665, 0.4467446804046631, 0.379202276468277, 0.2805609703063965, 0.6738206744194031, 0.4373537302017212, 0.1579371839761734, 0.47548970580101013, 0.9872133731842041, 0.8741679787635803, 0.5208300948143005, 0.16356949508190155, 0.3020927906036377, 0.9810137748718262, 0.9264659285545349, 0.5184895992279053
3, 30, 11, 83Perc, new, 1.7467697858810425, 1.9995657205581665, 0.4467446804046631, 0.379202276468277, 0.2805609703063965, 0.6738206744194031, 0.4373537302017212, 0.1579371839761734, 0.47548970580101013, 0.9872133731842041, 0.8741679787635803, 0.5208300948143005, 2.861741781234741, 2.864380121231079, 0.07809362560510635, 0.07828842848539352, 0.06818536669015884
3, 30, 42, 60Perc, all, 1.7467697858810425, 1.9995657205581665, 0.4467446804046631, 0.379202276468277, 0.2805609703063965, 0.6588058471679688, 0.5291009545326233, 0.1266496330499649, 0.4328153729438782, 0.9934490919113159, 0.8872626423835754, 0.4656151533126831, 0.14438873529434204, 0.3031221628189087, 0.982853353023529, 0.9248417615890503, 0.5038643479347229
3, 30, 32, 60Perc, first, 1.7467697858810425, 1.9995657205581665, 0.4467446804046631, 0.379202276468277, 0.2805609703063965, 0.6588058471679688, 0.5291009545326233, 0.1266496330499649, 0.4328153729438782, 0.9934490919113159, 0.8872626423835754, 0.4656151533126831, 0.142942413687706, 0.2927803099155426, 0.9860188961029053, 0.9311708807945251, 0.49463722109794617
3, 30, 47, 60Perc, last, 1.7467697858810425, 1.9995657205581665, 0.4467446804046631, 0.379202276468277, 0.2805609703063965, 0.6588058471679688, 0.5291009545326233, 0.1266496330499649, 0.4328153729438782, 0.9934490919113159, 0.8872626423835754, 0.4656151533126831, 0.1343992054462433, 0.3436770439147949, 0.9847878813743591, 0.909414529800415, 0.49929022789001465
3, 30, 55, 60Perc, first_last, 1.7467697858810425, 1.9995657205581665, 0.4467446804046631, 0.379202276468277, 0.2805609703063965, 0.6588058471679688, 0.5291009545326233, 0.1266496330499649, 0.4328153729438782, 0.9934490919113159, 0.8872626423835754, 0.4656151533126831, 0.11983202397823334, 0.24105507135391235, 0.9893163442611694, 0.9390822649002075, 0.5255520343780518
3, 30, 11, 60Perc, new, 1.7467697858810425, 1.9995657205581665, 0.4467446804046631, 0.379202276468277, 0.2805609703063965, 0.6588058471679688, 0.5291009545326233, 0.1266496330499649, 0.4328153729438782, 0.9934490919113159, 0.8872626423835754, 0.4656151533126831, 2.869279384613037, 2.873047351837158, 0.07737964391708374, 0.06962025165557861, 0.07831230014562607
3, 30, 37, 30Perc, all, 1.7467697858810425, 1.9995657205581665, 0.4467446804046631, 0.379202276468277, 0.2805609703063965, 0.6536577939987183, 0.593635082244873, 0.30846232175827026, 8.529091835021973, 0.9844627976417542, 0.16034755110740662, 0.1087566688656807, 0.10478392243385315, 0.1690644472837448, 0.9942942261695862, 0.9660347700119019, 0.45107728242874146
3, 30, 55, 30Perc, first, 1.7467697858810425, 1.9995657205581665, 0.4467446804046631, 0.379202276468277, 0.2805609703063965, 0.6536577939987183, 0.593635082244873, 0.30846232175827026, 8.529091835021973, 0.9844627976417542, 0.16034755110740662, 0.1087566688656807, 0.07809008657932281, 0.14547456800937653, 0.9964010119438171, 0.9699841737747192, 0.43720102310180664
3, 30, 50, 30Perc, last, 1.7467697858810425, 1.9995657205581665, 0.4467446804046631, 0.379202276468277, 0.2805609703063965, 0.6536577939987183, 0.593635082244873, 0.30846232175827026, 8.529091835021973, 0.9844627976417542, 0.16034755110740662, 0.1087566688656807, 0.09115464240312576, 0.15370449423789978, 0.9940308928489685, 0.9707741141319275, 0.44000789523124695
3, 30, 44, 30Perc, first_last, 1.7467697858810425, 1.9995657205581665, 0.4467446804046631, 0.379202276468277, 0.2805609703063965, 0.6536577939987183, 0.593635082244873, 0.30846232175827026, 8.529091835021973, 0.9844627976417542, 0.16034755110740662, 0.1087566688656807, 0.0959135964512825, 0.15305426716804504, 0.9944698214530945, 0.9699841737747192, 0.43704289197921753
3, 30, 11, 30Perc, new, 1.7467697858810425, 1.9995657205581665, 0.4467446804046631, 0.379202276468277, 0.2805609703063965, 0.6536577939987183, 0.593635082244873, 0.30846232175827026, 8.529091835021973, 0.9844627976417542, 0.16034755110740662, 0.1087566688656807, 2.89457106590271, 2.904371738433838, 0.08611306548118591, 0.07977882772684097, 0.07187191396951675
3, 30, 50, 16Perc, all, 1.7467697858810425, 1.9995657205581665, 0.4467446804046631, 0.379202276468277, 0.2805609703063965, 0.638115644454956, 0.6024510860443115, 0.5005201101303101, 14.20946979522705, 0.9831746816635132, 0.11009174585342407, 0.14470794796943665, 0.08244001865386963, 0.15692657232284546, 0.9984704256057739, 0.966360867023468, 0.4398217499256134
3, 30, 55, 16Perc, first, 1.7467697858810425, 1.9995657205581665, 0.4467446804046631, 0.379202276468277, 0.2805609703063965, 0.638115644454956, 0.6024510860443115, 0.5005201101303101, 14.20946979522705, 0.9831746816635132, 0.11009174585342407, 0.14470794796943665, 0.07693589478731155, 0.17031925916671753, 0.998810350894928, 0.9587156176567078, 0.4357790946960449
3, 30, 33, 16Perc, last, 1.7467697858810425, 1.9995657205581665, 0.4467446804046631, 0.379202276468277, 0.2805609703063965, 0.638115644454956, 0.6024510860443115, 0.5005201101303101, 14.20946979522705, 0.9831746816635132, 0.11009174585342407, 0.14470794796943665, 0.10467663407325745, 0.275783896446228, 0.9976206421852112, 0.9373088479042053, 0.44163617491722107
3, 30, 45, 16Perc, first_last, 1.7467697858810425, 1.9995657205581665, 0.4467446804046631, 0.379202276468277, 0.2805609703063965, 0.638115644454956, 0.6024510860443115, 0.5005201101303101, 14.20946979522705, 0.9831746816635132, 0.11009174585342407, 0.14470794796943665, 0.08874896913766861, 0.2066284716129303, 0.9983004927635193, 0.9541284441947937, 0.45102658867836
3, 30, 11, 16Perc, new, 1.7467697858810425, 1.9995657205581665, 0.4467446804046631, 0.379202276468277, 0.2805609703063965, 0.638115644454956, 0.6024510860443115, 0.5005201101303101, 14.20946979522705, 0.9831746816635132, 0.11009174585342407, 0.14470794796943665, 2.9186432361602783, 2.911106586456299, 0.08242692053318024, 0.09480122476816177, 0.07582364976406097
3, 30, 44, fiveMovements, all, 1.7467697858810425, 1.9995657205581665, 0.4467446804046631, 0.379202276468277, 0.2805609703063965, 0.7125545144081116, 0.5939935445785522, 0.7073377370834351, 5.136465549468994, 0.9994612336158752, 0.2801932394504547, 0.13539884984493256, 0.10582730174064636, 0.2004874348640442, 0.9989224076271057, 0.95652174949646, 0.21342584490776062
3, 30, 59, fiveMovements, first, 1.7467697858810425, 1.9995657205581665, 0.4467446804046631, 0.379202276468277, 0.2805609703063965, 0.7125545144081116, 0.5939935445785522, 0.7073377370834351, 5.136465549468994, 0.9994612336158752, 0.2801932394504547, 0.13539884984493256, 0.09712010622024536, 0.15896809101104736, 0.9994612336158752, 0.9710144996643066, 0.2113349735736847
3, 30, 48, fiveMovements, last, 1.7467697858810425, 1.9995657205581665, 0.4467446804046631, 0.379202276468277, 0.2805609703063965, 0.7125545144081116, 0.5939935445785522, 0.7073377370834351, 5.136465549468994, 0.9994612336158752, 0.2801932394504547, 0.13539884984493256, 0.1022556871175766, 0.18809683620929718, 0.9994612336158752, 0.966183602809906, 0.21193689107894897
3, 30, 69, fiveMovements, first_last, 1.7467697858810425, 1.9995657205581665, 0.4467446804046631, 0.379202276468277, 0.2805609703063965, 0.7125545144081116, 0.5939935445785522, 0.7073377370834351, 5.136465549468994, 0.9994612336158752, 0.2801932394504547, 0.13539884984493256, 0.09172909706830978, 0.15641875565052032, 1.0, 0.9806763529777527, 0.20924411714076996
3, 30, 11, fiveMovements, new, 1.7467697858810425, 1.9995657205581665, 0.4467446804046631, 0.379202276468277, 0.2805609703063965, 0.7125545144081116, 0.5939935445785522, 0.7073377370834351, 5.136465549468994, 0.9994612336158752, 0.2801932394504547, 0.13539884984493256, 2.8711328506469727, 2.8172898292541504, 0.23653016984462738, 0.1835748851299286, 0.06199708580970764
3, 30, 18, oneMovement, all, 1.7467697858810425, 1.9995657205581665, 0.4467446804046631, 0.379202276468277, 0.2805609703063965, 0.7945945858955383, 0.5996153950691223, 1.1695213317871094, 1.162800669670105, 1.0, 1.0, 0.07878655940294266, 0.12066077440977097, 0.12267963588237762, 1.0, 1.0, 0.09041843563318253
3, 30, 18, oneMovement, first, 1.7467697858810425, 1.9995657205581665, 0.4467446804046631, 0.379202276468277, 0.2805609703063965, 0.7945945858955383, 0.5996153950691223, 1.1695213317871094, 1.162800669670105, 1.0, 1.0, 0.07878655940294266, 0.12073393166065216, 0.1243886947631836, 1.0, 1.0, 0.09069760143756866
3, 30, 17, oneMovement, last, 1.7467697858810425, 1.9995657205581665, 0.4467446804046631, 0.379202276468277, 0.2805609703063965, 0.7945945858955383, 0.5996153950691223, 1.1695213317871094, 1.162800669670105, 1.0, 1.0, 0.07878655940294266, 0.12061581015586853, 0.12404000759124756, 1.0, 1.0, 0.112162284553051
3, 30, 18, oneMovement, first_last, 1.7467697858810425, 1.9995657205581665, 0.4467446804046631, 0.379202276468277, 0.2805609703063965, 0.7945945858955383, 0.5996153950691223, 1.1695213317871094, 1.162800669670105, 1.0, 1.0, 0.07878655940294266, 0.1215207427740097, 0.12380245327949524, 1.0, 1.0, 0.08979807049036026
3, 30, 16, oneMovement, new, 1.7467697858810425, 1.9995657205581665, 0.4467446804046631, 0.379202276468277, 0.2805609703063965, 0.7945945858955383, 0.5996153950691223, 1.1695213317871094, 1.162800669670105, 1.0, 1.0, 0.07878655940294266, 4.050137042999268, 3.9566967487335205, 1.0, 1.0, 0.07878655940294266
4, 35, 36, 83Perc, all, 1.7309650182724, 1.9893641471862793, 0.45236584544181824, 0.37978267669677734, 0.2777256965637207, 0.6879596710205078, 0.4312685430049896, 0.13630792498588562, 0.5272989273071289, 0.9870372414588928, 0.8510301113128662, 0.5390856862068176, 0.15476199984550476, 0.3450227677822113, 0.9824932217597961, 0.914421558380127, 0.5311281085014343
4, 35, 40, 83Perc, first, 1.7309650182724, 1.9893641471862793, 0.45236584544181824, 0.37978267669677734, 0.2777256965637207, 0.6879596710205078, 0.4312685430049896, 0.13630792498588562, 0.5272989273071289, 0.9870372414588928, 0.8510301113128662, 0.5390856862068176, 0.1519465297460556, 0.3710302710533142, 0.9831976890563965, 0.9049128293991089, 0.5262911319732666
4, 35, 36, 83Perc, last, 1.7309650182724, 1.9893641471862793, 0.45236584544181824, 0.37978267669677734, 0.2777256965637207, 0.6879596710205078, 0.4312685430049896, 0.13630792498588562, 0.5272989273071289, 0.9870372414588928, 0.8510301113128662, 0.5390856862068176, 0.16524137556552887, 0.3694840371608734, 0.9785832762718201, 0.9052298069000244, 0.5340926647186279
4, 35, 36, 83Perc, first_last, 1.7309650182724, 1.9893641471862793, 0.45236584544181824, 0.37978267669677734, 0.2777256965637207, 0.6879596710205078, 0.4312685430049896, 0.13630792498588562, 0.5272989273071289, 0.9870372414588928, 0.8510301113128662, 0.5390856862068176, 0.15558144450187683, 0.34699928760528564, 0.9823875427246094, 0.9163233041763306, 0.528163492679596
4, 35, 11, 83Perc, new, 1.7309650182724, 1.9893641471862793, 0.45236584544181824, 0.37978267669677734, 0.2777256965637207, 0.6879596710205078, 0.4312685430049896, 0.13630792498588562, 0.5272989273071289, 0.9870372414588928, 0.8510301113128662, 0.5390856862068176, 2.864978075027466, 2.8585188388824463, 0.07753002643585205, 0.0833597481250763, 0.06818536669015884
4, 35, 32, 60Perc, all, 1.7309650182724, 1.9893641471862793, 0.45236584544181824, 0.37978267669677734, 0.2777256965637207, 0.644719660282135, 0.5535488724708557, 0.11769424378871918, 0.43762946128845215, 0.9923939108848572, 0.8848892450332642, 0.4729495346546173, 0.14656253159046173, 0.2593560218811035, 0.9862387180328369, 0.9371044039726257, 0.5141167044639587
4, 35, 30, 60Perc, first, 1.7309650182724, 1.9893641471862793, 0.45236584544181824, 0.37978267669677734, 0.2777256965637207, 0.644719660282135, 0.5535488724708557, 0.11769424378871918, 0.43762946128845215, 0.9923939108848572, 0.8848892450332642, 0.4729495346546173, 0.15880641341209412, 0.24645505845546722, 0.9820180535316467, 0.9465981125831604, 0.5187697410583496
4, 35, 47, 60Perc, last, 1.7309650182724, 1.9893641471862793, 0.45236584544181824, 0.37978267669677734, 0.2777256965637207, 0.644719660282135, 0.5535488724708557, 0.11769424378871918, 0.43762946128845215, 0.9923939108848572, 0.8848892450332642, 0.4729495346546173, 0.11910729855298996, 0.2940714359283447, 0.9905034303665161, 0.9284018874168396, 0.5065457224845886
4, 35, 28, 60Perc, first_last, 1.7309650182724, 1.9893641471862793, 0.45236584544181824, 0.37978267669677734, 0.2777256965637207, 0.644719660282135, 0.5535488724708557, 0.11769424378871918, 0.43762946128845215, 0.9923939108848572, 0.8848892450332642, 0.4729495346546173, 0.1539466232061386, 0.328265905380249, 0.9847438931465149, 0.9260284900665283, 0.5173501372337341
4, 35, 11, 60Perc, new, 1.7309650182724, 1.9893641471862793, 0.45236584544181824, 0.37978267669677734, 0.2777256965637207, 0.644719660282135, 0.5535488724708557, 0.11769424378871918, 0.43762946128845215, 0.9923939108848572, 0.8848892450332642, 0.4729495346546173, 2.8719520568847656, 2.875293493270874, 0.07711584866046906, 0.07199367135763168, 0.07728706300258636
4, 35, 56, 30Perc, all, 1.7309650182724, 1.9893641471862793, 0.45236584544181824, 0.37978267669677734, 0.2777256965637207, 0.6625849008560181, 0.5875469446182251, 0.4114276170730591, 23.52720069885254, 0.9705055952072144, 0.03633491322398186, 0.15192726254463196, 0.08548928052186966, 0.11716451495885849, 0.9956109523773193, 0.980252742767334, 0.4623048007488251
4, 35, 43, 30Perc, first, 1.7309650182724, 1.9893641471862793, 0.45236584544181824, 0.37978267669677734, 0.2777256965637207, 0.6625849008560181, 0.5875469446182251, 0.4114276170730591, 23.52720069885254, 0.9705055952072144, 0.03633491322398186, 0.15192726254463196, 0.09663102775812149, 0.16917680203914642, 0.9948209524154663, 0.9684044122695923, 0.47040918469429016
4, 35, 47, 30Perc, last, 1.7309650182724, 1.9893641471862793, 0.45236584544181824, 0.37978267669677734, 0.2777256965637207, 0.6625849008560181, 0.5875469446182251, 0.4114276170730591, 23.52720069885254, 0.9705055952072144, 0.03633491322398186, 0.15192726254463196, 0.10947396606206894, 0.15081292390823364, 0.9898174405097961, 0.9770932197570801, 0.4474402070045471
4, 35, 48, 30Perc, first_last, 1.7309650182724, 1.9893641471862793, 0.45236584544181824, 0.37978267669677734, 0.2777256965637207, 0.6625849008560181, 0.5875469446182251, 0.4114276170730591, 23.52720069885254, 0.9705055952072144, 0.03633491322398186, 0.15192726254463196, 0.08901158720254898, 0.15731872618198395, 0.9964887499809265, 0.9755133986473083, 0.47677406668663025
4, 35, 12, 30Perc, new, 1.7309650182724, 1.9893641471862793, 0.45236584544181824, 0.37978267669677734, 0.2777256965637207, 0.6625849008560181, 0.5875469446182251, 0.4114276170730591, 23.52720069885254, 0.9705055952072144, 0.03633491322398186, 0.15192726254463196, 2.8968288898468018, 2.8894119262695312, 0.08567415922880173, 0.08372827619314194, 0.07187191396951675
4, 35, 28, 16Perc, all, 1.7309650182724, 1.9893641471862793, 0.45236584544181824, 0.37978267669677734, 0.2777256965637207, 0.6454573273658752, 0.60136878490448, 0.4842141270637512, 16.760435104370117, 0.986743688583374, 0.06727828830480576, 0.16154703497886658, 0.11868429183959961, 0.22875456511974335, 0.9966009259223938, 0.9541284441947937, 0.44351425766944885
4, 35, 48, 16Perc, first, 1.7309650182724, 1.9893641471862793, 0.45236584544181824, 0.37978267669677734, 0.2777256965637207, 0.6454573273658752, 0.60136878490448, 0.4842141270637512, 16.760435104370117, 0.986743688583374, 0.06727828830480576, 0.16154703497886658, 0.0879213735461235, 0.2121572196483612, 0.998810350894928, 0.9587156176567078, 0.4430367648601532
4, 35, 77, 16Perc, last, 1.7309650182724, 1.9893641471862793, 0.45236584544181824, 0.37978267669677734, 0.2777256965637207, 0.6454573273658752, 0.60136878490448, 0.4842141270637512, 16.760435104370117, 0.986743688583374, 0.06727828830480576, 0.16154703497886658, 0.06318818777799606, 0.11186333745718002, 0.9989802837371826, 0.9847095012664795, 0.43762534856796265
4, 35, 46, 16Perc, first_last, 1.7309650182724, 1.9893641471862793, 0.45236584544181824, 0.37978267669677734, 0.2777256965637207, 0.6454573273658752, 0.60136878490448, 0.4842141270637512, 16.760435104370117, 0.986743688583374, 0.06727828830480576, 0.16154703497886658, 0.09144963324069977, 0.20007865130901337, 0.9979605674743652, 0.9556574821472168, 0.4431004226207733
4, 35, 13, 16Perc, new, 1.7309650182724, 1.9893641471862793, 0.45236584544181824, 0.37978267669677734, 0.2777256965637207, 0.6454573273658752, 0.60136878490448, 0.4842141270637512, 16.760435104370117, 0.986743688583374, 0.06727828830480576, 0.16154703497886658, 2.914299249649048, 2.9050848484039307, 0.08310672640800476, 0.08868501335382462, 0.07582364976406097
4, 35, 41, fiveMovements, all, 1.7309650182724, 1.9893641471862793, 0.45236584544181824, 0.37978267669677734, 0.2777256965637207, 0.6703829169273376, 0.5942469835281372, 0.7290548086166382, 14.032258033752441, 1.0, 0.15458936989307404, 0.12678198516368866, 0.11065831780433655, 0.20496174693107605, 0.9994612336158752, 0.9710144996643066, 0.20816701650619507
4, 35, 38, fiveMovements, first, 1.7309650182724, 1.9893641471862793, 0.45236584544181824, 0.37978267669677734, 0.2777256965637207, 0.6703829169273376, 0.5942469835281372, 0.7290548086166382, 14.032258033752441, 1.0, 0.15458936989307404, 0.12678198516368866, 0.11275982111692429, 0.16451658308506012, 0.9994612336158752, 0.9758453965187073, 0.2016410082578659
4, 35, 41, fiveMovements, last, 1.7309650182724, 1.9893641471862793, 0.45236584544181824, 0.37978267669677734, 0.2777256965637207, 0.6703829169273376, 0.5942469835281372, 0.7290548086166382, 14.032258033752441, 1.0, 0.15458936989307404, 0.12678198516368866, 0.11047054082155228, 0.14675210416316986, 0.9994612336158752, 0.9758453965187073, 0.2024330049753189
4, 35, 44, fiveMovements, first_last, 1.7309650182724, 1.9893641471862793, 0.45236584544181824, 0.37978267669677734, 0.2777256965637207, 0.6703829169273376, 0.5942469835281372, 0.7290548086166382, 14.032258033752441, 1.0, 0.15458936989307404, 0.12678198516368866, 0.10865182429552078, 0.14352259039878845, 1.0, 0.9758453965187073, 0.20338338613510132
4, 35, 11, fiveMovements, new, 1.7309650182724, 1.9893641471862793, 0.45236584544181824, 0.37978267669677734, 0.2777256965637207, 0.6703829169273376, 0.5942469835281372, 0.7290548086166382, 14.032258033752441, 1.0, 0.15458936989307404, 0.12678198516368866, 2.878251075744629, 2.8243978023529053, 0.21875, 0.1835748851299286, 0.07067731022834778
4, 35, 17, oneMovement, all, 1.7309650182724, 1.9893641471862793, 0.45236584544181824, 0.37978267669677734, 0.2777256965637207, 0.6567567586898804, 0.6042060852050781, 1.182727336883545, 1.1767592430114746, 1.0, 1.0, 0.07878655940294266, 0.12471309304237366, 0.12503939867019653, 1.0, 1.0, 0.1957566887140274
4, 35, 17, oneMovement, first, 1.7309650182724, 1.9893641471862793, 0.45236584544181824, 0.37978267669677734, 0.2777256965637207, 0.6567567586898804, 0.6042060852050781, 1.182727336883545, 1.1767592430114746, 1.0, 1.0, 0.07878655940294266, 0.1246795803308487, 0.12497664988040924, 1.0, 1.0, 0.20239461958408356
4, 35, 18, oneMovement, last, 1.7309650182724, 1.9893641471862793, 0.45236584544181824, 0.37978267669677734, 0.2777256965637207, 0.6567567586898804, 0.6042060852050781, 1.182727336883545, 1.1767592430114746, 1.0, 1.0, 0.07878655940294266, 0.1250380277633667, 0.12510009109973907, 1.0, 1.0, 0.14411117136478424
4, 35, 18, oneMovement, first_last, 1.7309650182724, 1.9893641471862793, 0.45236584544181824, 0.37978267669677734, 0.2777256965637207, 0.6567567586898804, 0.6042060852050781, 1.182727336883545, 1.1767592430114746, 1.0, 1.0, 0.07878655940294266, 0.1247885674238205, 0.12507303059101105, 1.0, 1.0, 0.15682868659496307
4, 35, 19, oneMovement, new, 1.7309650182724, 1.9893641471862793, 0.45236584544181824, 0.37978267669677734, 0.2777256965637207, 0.6567567586898804, 0.6042060852050781, 1.182727336883545, 1.1767592430114746, 1.0, 1.0, 0.07878655940294266, 3.830028533935547, 3.747069835662842, 1.0, 1.0, 0.07878655940294266
5, 27, 29, 83Perc, all, 1.762229561805725, 1.9533827304840088, 0.44009679555892944, 0.38110604882240295, 0.29180824756622314, 0.6400583386421204, 0.4293961524963379, 0.16180604696273804, 0.5117102861404419, 0.9867554306983948, 0.8624405860900879, 0.5217662453651428, 0.16614499688148499, 0.3401164412498474, 0.9813308119773865, 0.9188589453697205, 0.523482620716095
5, 27, 29, 83Perc, first, 1.762229561805725, 1.9533827304840088, 0.44009679555892944, 0.38110604882240295, 0.29180824756622314, 0.6400583386421204, 0.4293961524963379, 0.16180604696273804, 0.5117102861404419, 0.9867554306983948, 0.8624405860900879, 0.5217662453651428, 0.1727430820465088, 0.4040609896183014, 0.9798513650894165, 0.8960380554199219, 0.5378374457359314
5, 27, 35, 83Perc, last, 1.762229561805725, 1.9533827304840088, 0.44009679555892944, 0.38110604882240295, 0.29180824756622314, 0.6400583386421204, 0.4293961524963379, 0.16180604696273804, 0.5117102861404419, 0.9867554306983948, 0.8624405860900879, 0.5217662453651428, 0.1594453752040863, 0.3787540793418884, 0.981401264667511, 0.9068145751953125, 0.5253549814224243
5, 27, 27, 83Perc, first_last, 1.762229561805725, 1.9533827304840088, 0.44009679555892944, 0.38110604882240295, 0.29180824756622314, 0.6400583386421204, 0.4293961524963379, 0.16180604696273804, 0.5117102861404419, 0.9867554306983948, 0.8624405860900879, 0.5217662453651428, 0.17043818533420563, 0.3897233307361603, 0.9815773963928223, 0.9001584649085999, 0.529099702835083
5, 27, 11, 83Perc, new, 1.762229561805725, 1.9533827304840088, 0.44009679555892944, 0.38110604882240295, 0.29180824756622314, 0.6400583386421204, 0.4293961524963379, 0.16180604696273804, 0.5117102861404419, 0.9867554306983948, 0.8624405860900879, 0.5217662453651428, 2.8597662448883057, 2.860630512237549, 0.0772482305765152, 0.08589540421962738, 0.06818536669015884
5, 27, 42, 60Perc, all, 1.762229561805725, 1.9533827304840088, 0.44009679555892944, 0.38110604882240295, 0.29180824756622314, 0.6132631897926331, 0.5256308913230896, 0.11546960473060608, 0.5061981678009033, 0.9914267063140869, 0.8690664768218994, 0.4917981028556824, 0.130742147564888, 0.39778777956962585, 0.9878215193748474, 0.8995253443717957, 0.5275236368179321
5, 27, 41, 60Perc, first, 1.762229561805725, 1.9533827304840088, 0.44009679555892944, 0.38110604882240295, 0.29180824756622314, 0.6132631897926331, 0.5256308913230896, 0.11546960473060608, 0.5061981678009033, 0.9914267063140869, 0.8690664768218994, 0.4917981028556824, 0.1273367553949356, 0.27377066016197205, 0.9885249733924866, 0.936313271522522, 0.5097002983093262
5, 27, 28, 60Perc, last, 1.762229561805725, 1.9533827304840088, 0.44009679555892944, 0.38110604882240295, 0.29180824756622314, 0.6132631897926331, 0.5256308913230896, 0.11546960473060608, 0.5061981678009033, 0.9914267063140869, 0.8690664768218994, 0.4917981028556824, 0.14305032789707184, 0.31400537490844727, 0.9873818159103394, 0.9244462251663208, 0.5090693831443787
5, 27, 34, 60Perc, first_last, 1.762229561805725, 1.9533827304840088, 0.44009679555892944, 0.38110604882240295, 0.29180824756622314, 0.6132631897926331, 0.5256308913230896, 0.11546960473060608, 0.5061981678009033, 0.9914267063140869, 0.8690664768218994, 0.4917981028556824, 0.13660110533237457, 0.3250640332698822, 0.987074077129364, 0.9276107549667358, 0.5074132680892944
5, 27, 11, 60Perc, new, 1.762229561805725, 1.9533827304840088, 0.44009679555892944, 0.38110604882240295, 0.29180824756622314, 0.6132631897926331, 0.5256308913230896, 0.11546960473060608, 0.5061981678009033, 0.9914267063140869, 0.8690664768218994, 0.4917981028556824, 2.8680455684661865, 2.8610968589782715, 0.07693998515605927, 0.0735759511590004, 0.07728706300258636
5, 27, 51, 30Perc, all, 1.762229561805725, 1.9533827304840088, 0.44009679555892944, 0.38110604882240295, 0.29180824756622314, 0.6275873184204102, 0.5620478391647339, 0.3858705163002014, 14.812644958496094, 0.9750702381134033, 0.12243285775184631, 0.1939118355512619, 0.08961832523345947, 0.12401410937309265, 0.9949086904525757, 0.980252742767334, 0.4550306499004364
5, 27, 48, 30Perc, first, 1.762229561805725, 1.9533827304840088, 0.44009679555892944, 0.38110604882240295, 0.29180824756622314, 0.6275873184204102, 0.5620478391647339, 0.3858705163002014, 14.812644958496094, 0.9750702381134033, 0.12243285775184631, 0.1939118355512619, 0.08040741086006165, 0.14144156873226166, 0.9973665475845337, 0.9794628620147705, 0.4719509780406952
5, 27, 50, 30Perc, last, 1.762229561805725, 1.9533827304840088, 0.44009679555892944, 0.38110604882240295, 0.29180824756622314, 0.6275873184204102, 0.5620478391647339, 0.3858705163002014, 14.812644958496094, 0.9750702381134033, 0.12243285775184631, 0.1939118355512619, 0.09096737951040268, 0.13797099888324738, 0.9942064881324768, 0.978672981262207, 0.4518284201622009
5, 27, 46, 30Perc, first_last, 1.762229561805725, 1.9533827304840088, 0.44009679555892944, 0.38110604882240295, 0.29180824756622314, 0.6275873184204102, 0.5620478391647339, 0.3858705163002014, 14.812644958496094, 0.9750702381134033, 0.12243285775184631, 0.1939118355512619, 0.0972081869840622, 0.17548254132270813, 0.9920119643211365, 0.9699841737747192, 0.46728602051734924
5, 27, 11, 30Perc, new, 1.762229561805725, 1.9533827304840088, 0.44009679555892944, 0.38110604882240295, 0.29180824756622314, 0.6275873184204102, 0.5620478391647339, 0.3858705163002014, 14.812644958496094, 0.9750702381134033, 0.12243285775184631, 0.1939118355512619, 2.893566608428955, 2.887554407119751, 0.08620084077119827, 0.0789889395236969, 0.07187191396951675
5, 27, 38, 16Perc, all, 1.762229561805725, 1.9533827304840088, 0.44009679555892944, 0.38110604882240295, 0.29180824756622314, 0.6167023777961731, 0.5730383396148682, 0.40808728337287903, 12.555617332458496, 0.9882732629776001, 0.08103975653648376, 0.19688047468662262, 0.09690047800540924, 0.21154388785362244, 0.9981305003166199, 0.961773693561554, 0.4550374150276184
5, 27, 38, 16Perc, first, 1.762229561805725, 1.9533827304840088, 0.44009679555892944, 0.38110604882240295, 0.29180824756622314, 0.6167023777961731, 0.5730383396148682, 0.40808728337287903, 12.555617332458496, 0.9882732629776001, 0.08103975653648376, 0.19688047468662262, 0.09579335898160934, 0.22584664821624756, 0.9977906346321106, 0.9587156176567078, 0.4486391842365265
5, 27, 67, 16Perc, last, 1.762229561805725, 1.9533827304840088, 0.44009679555892944, 0.38110604882240295, 0.29180824756622314, 0.6167023777961731, 0.5730383396148682, 0.40808728337287903, 12.555617332458496, 0.9882732629776001, 0.08103975653648376, 0.19688047468662262, 0.06795205920934677, 0.16827023029327393, 0.9983004927635193, 0.963302731513977, 0.44472384452819824
5, 27, 41, 16Perc, first_last, 1.762229561805725, 1.9533827304840088, 0.44009679555892944, 0.38110604882240295, 0.29180824756622314, 0.6167023777961731, 0.5730383396148682, 0.40808728337287903, 12.555617332458496, 0.9882732629776001, 0.08103975653648376, 0.19688047468662262, 0.09205243736505508, 0.20355096459388733, 0.998810350894928, 0.9587156176567078, 0.4482572078704834
5, 27, 11, 16Perc, new, 1.762229561805725, 1.9533827304840088, 0.44009679555892944, 0.38110604882240295, 0.29180824756622314, 0.6167023777961731, 0.5730383396148682, 0.40808728337287903, 12.555617332458496, 0.9882732629776001, 0.08103975653648376, 0.19688047468662262, 2.9157001972198486, 2.915651559829712, 0.08395649492740631, 0.08103975653648376, 0.07582364976406097
5, 27, 41, fiveMovements, all, 1.762229561805725, 1.9533827304840088, 0.44009679555892944, 0.38110604882240295, 0.29180824756622314, 0.6999515295028687, 0.5711841583251953, 0.6540024876594543, 8.432991981506348, 1.0, 0.3285024166107178, 0.15526199340820312, 0.10578905791044235, 0.14400282502174377, 0.9994612336158752, 0.990338146686554, 0.21139833331108093
5, 27, 60, fiveMovements, first, 1.762229561805725, 1.9533827304840088, 0.44009679555892944, 0.38110604882240295, 0.29180824756622314, 0.6999515295028687, 0.5711841583251953, 0.6540024876594543, 8.432991981506348, 1.0, 0.3285024166107178, 0.15526199340820312, 0.09381675720214844, 0.13154378533363342, 1.0, 0.9855072498321533, 0.210574671626091
5, 27, 54, fiveMovements, last, 1.762229561805725, 1.9533827304840088, 0.44009679555892944, 0.38110604882240295, 0.29180824756622314, 0.6999515295028687, 0.5711841583251953, 0.6540024876594543, 8.432991981506348, 1.0, 0.3285024166107178, 0.15526199340820312, 0.09781811386346817, 0.13195058703422546, 1.0, 0.990338146686554, 0.21146169304847717
5, 27, 42, fiveMovements, first_last, 1.762229561805725, 1.9533827304840088, 0.44009679555892944, 0.38110604882240295, 0.29180824756622314, 0.6999515295028687, 0.5711841583251953, 0.6540024876594543, 8.432991981506348, 1.0, 0.3285024166107178, 0.15526199340820312, 0.10564737021923065, 0.13838855922222137, 0.9994612336158752, 0.9855072498321533, 0.20594944059848785
5, 27, 11, fiveMovements, new, 1.762229561805725, 1.9533827304840088, 0.44009679555892944, 0.38110604882240295, 0.29180824756622314, 0.6999515295028687, 0.5711841583251953, 0.6540024876594543, 8.432991981506348, 1.0, 0.3285024166107178, 0.15526199340820312, 2.871739387512207, 2.8180341720581055, 0.21443966031074524, 0.2222222238779068, 0.07067731022834778
5, 27, 15, oneMovement, all, 1.762229561805725, 1.9533827304840088, 0.44009679555892944, 0.38110604882240295, 0.29180824756622314, 0.5837838053703308, 0.5778405070304871, 1.128828763961792, 1.1261775493621826, 1.0, 1.0, 0.07878655940294266, 0.11718114465475082, 0.11855980008840561, 1.0, 1.0, 0.2946121096611023
5, 27, 15, oneMovement, first, 1.762229561805725, 1.9533827304840088, 0.44009679555892944, 0.38110604882240295, 0.29180824756622314, 0.5837838053703308, 0.5778405070304871, 1.128828763961792, 1.1261775493621826, 1.0, 1.0, 0.07878655940294266, 0.11714379489421844, 0.118318572640419, 1.0, 1.0, 0.2885635495185852
5, 27, 15, oneMovement, last, 1.762229561805725, 1.9533827304840088, 0.44009679555892944, 0.38110604882240295, 0.29180824756622314, 0.5837838053703308, 0.5778405070304871, 1.128828763961792, 1.1261775493621826, 1.0, 1.0, 0.07878655940294266, 0.11716881394386292, 0.11844322085380554, 1.0, 1.0, 0.28930798172950745
5, 27, 16, oneMovement, first_last, 1.762229561805725, 1.9533827304840088, 0.44009679555892944, 0.38110604882240295, 0.29180824756622314, 0.5837838053703308, 0.5778405070304871, 1.128828763961792, 1.1261775493621826, 1.0, 1.0, 0.07878655940294266, 0.1174434944987297, 0.11801143735647202, 1.0, 1.0, 0.2109246551990509
5, 27, 13, oneMovement, new, 1.762229561805725, 1.9533827304840088, 0.44009679555892944, 0.38110604882240295, 0.29180824756622314, 0.5837838053703308, 0.5778405070304871, 1.128828763961792, 1.1261775493621826, 1.0, 1.0, 0.07878655940294266, 4.281012058258057, 4.176234245300293, 1.0, 1.0, 0.07878655940294266
6, 29, 40, 83Perc, all, 1.7556266784667969, 1.981933832168579, 0.4429680109024048, 0.37931835651397705, 0.2771633565425873, 0.6716333031654358, 0.4262755513191223, 0.15383566915988922, 0.5118726491928101, 0.9841840267181396, 0.8681458234786987, 0.5170853734016418, 0.1403154730796814, 0.3546519875526428, 0.9874599575996399, 0.9169571995735168, 0.5328444242477417
6, 29, 30, 83Perc, first, 1.7556266784667969, 1.981933832168579, 0.4429680109024048, 0.37931835651397705, 0.2771633565425873, 0.6716333031654358, 0.4262755513191223, 0.15383566915988922, 0.5118726491928101, 0.9841840267181396, 0.8681458234786987, 0.5170853734016418, 0.172751784324646, 0.37396180629730225, 0.9784071445465088, 0.9030110836029053, 0.5092838406562805
6, 29, 32, 83Perc, last, 1.7556266784667969, 1.981933832168579, 0.4429680109024048, 0.37931835651397705, 0.2771633565425873, 0.6716333031654358, 0.4262755513191223, 0.15383566915988922, 0.5118726491928101, 0.9841840267181396, 0.8681458234786987, 0.5170853734016418, 0.16303589940071106, 0.349343478679657, 0.9807319641113281, 0.9103010892868042, 0.5025745034217834
6, 29, 33, 83Perc, first_last, 1.7556266784667969, 1.981933832168579, 0.4429680109024048, 0.37931835651397705, 0.2771633565425873, 0.6716333031654358, 0.4262755513191223, 0.15383566915988922, 0.5118726491928101, 0.9841840267181396, 0.8681458234786987, 0.5170853734016418, 0.1587296575307846, 0.36573588848114014, 0.9837613105773926, 0.9093502163887024, 0.5077235102653503
6, 29, 11, 83Perc, new, 1.7556266784667969, 1.981933832168579, 0.4429680109024048, 0.37931835651397705, 0.2771633565425873, 0.6716333031654358, 0.4262755513191223, 0.15383566915988922, 0.5118726491928101, 0.9841840267181396, 0.8681458234786987, 0.5170853734016418, 2.8628592491149902, 2.85776424407959, 0.07844587415456772, 0.07511886209249496, 0.06818536669015884
6, 29, 27, 60Perc, all, 1.7556266784667969, 1.981933832168579, 0.4429680109024048, 0.37931835651397705, 0.2771633565425873, 0.6408815979957581, 0.5342271327972412, 0.13032031059265137, 0.4981086850166321, 0.9913827180862427, 0.8682753443717957, 0.4705047309398651, 0.14945437014102936, 0.3080337643623352, 0.9858869910240173, 0.9252373576164246, 0.5100946426391602
6, 29, 32, 60Perc, first, 1.7556266784667969, 1.981933832168579, 0.4429680109024048, 0.37931835651397705, 0.2771633565425873, 0.6408815979957581, 0.5342271327972412, 0.13032031059265137, 0.4981086850166321, 0.9913827180862427, 0.8682753443717957, 0.4705047309398651, 0.14762374758720398, 0.2617979049682617, 0.9848757982254028, 0.9394778609275818, 0.4902208149433136
6, 29, 38, 60Perc, last, 1.7556266784667969, 1.981933832168579, 0.4429680109024048, 0.37931835651397705, 0.2771633565425873, 0.6408815979957581, 0.5342271327972412, 0.13032031059265137, 0.4981086850166321, 0.9913827180862427, 0.8682753443717957, 0.4705047309398651, 0.13815508782863617, 0.27046146988868713, 0.9857990741729736, 0.9359177350997925, 0.48446372151374817
6, 29, 37, 60Perc, first_last, 1.7556266784667969, 1.981933832168579, 0.4429680109024048, 0.37931835651397705, 0.2771633565425873, 0.6408815979957581, 0.5342271327972412, 0.13032031059265137, 0.4981086850166321, 0.9913827180862427, 0.8682753443717957, 0.4705047309398651, 0.12904103100299835, 0.2664606273174286, 0.9884369969367981, 0.9371044039726257, 0.49802839756011963
6, 29, 11, 60Perc, new, 1.7556266784667969, 1.981933832168579, 0.4429680109024048, 0.37931835651397705, 0.2771633565425873, 0.6408815979957581, 0.5342271327972412, 0.13032031059265137, 0.4981086850166321, 0.9913827180862427, 0.8682753443717957, 0.4705047309398651, 2.870457887649536, 2.865025043487549, 0.07689601927995682, 0.07397151738405228, 0.07831230014562607
6, 29, 37, 30Perc, all, 1.7556266784667969, 1.981933832168579, 0.4429680109024048, 0.37931835651397705, 0.2771633565425873, 0.6385685205459595, 0.5837517380714417, 0.39469119906425476, 13.169585227966309, 0.9734023809432983, 0.1050552949309349, 0.19102589786052704, 0.10743670165538788, 0.1681813895702362, 0.9924508333206177, 0.9628751873970032, 0.4562561810016632
6, 29, 56, 30Perc, first, 1.7556266784667969, 1.981933832168579, 0.4429680109024048, 0.37931835651397705, 0.2771633565425873, 0.6385685205459595, 0.5837517380714417, 0.39469119906425476, 13.169585227966309, 0.9734023809432983, 0.1050552949309349, 0.19102589786052704, 0.07642077654600143, 0.13791288435459137, 0.9976299405097961, 0.9778831005096436, 0.43510574102401733
6, 29, 43, 30Perc, last, 1.7556266784667969, 1.981933832168579, 0.4429680109024048, 0.37931835651397705, 0.2771633565425873, 0.6385685205459595, 0.5837517380714417, 0.39469119906425476, 13.169585227966309, 0.9734023809432983, 0.1050552949309349, 0.19102589786052704, 0.08707921206951141, 0.20346346497535706, 0.997103214263916, 0.9470773935317993, 0.4368847608566284
6, 29, 61, 30Perc, first_last, 1.7556266784667969, 1.981933832168579, 0.4429680109024048, 0.37931835651397705, 0.2771633565425873, 0.6385685205459595, 0.5837517380714417, 0.39469119906425476, 13.169585227966309, 0.9734023809432983, 0.1050552949309349, 0.19102589786052704, 0.07829517126083374, 0.14486859738826752, 0.9959620833396912, 0.9620853066444397, 0.44123345613479614
6, 29, 11, 30Perc, new, 1.7556266784667969, 1.981933832168579, 0.4429680109024048, 0.37931835651397705, 0.2771633565425873, 0.6385685205459595, 0.5837517380714417, 0.39469119906425476, 13.169585227966309, 0.9734023809432983, 0.1050552949309349, 0.19102589786052704, 2.896230697631836, 2.889742612838745, 0.08453300595283508, 0.09399683773517609, 0.07187191396951675
6, 29, 68, 16Perc, all, 1.7556266784667969, 1.981933832168579, 0.4429680109024048, 0.37931835651397705, 0.2771633565425873, 0.658764123916626, 0.591946542263031, 0.4601479470729828, 15.372536659240723, 0.9862338304519653, 0.05810397490859032, 0.19337895512580872, 0.06896799057722092, 0.12586617469787598, 0.9991502165794373, 0.9785932898521423, 0.4542416036128998
6, 29, 42, 16Perc, first, 1.7556266784667969, 1.981933832168579, 0.4429680109024048, 0.37931835651397705, 0.2771633565425873, 0.658764123916626, 0.591946542263031, 0.4601479470729828, 15.372536659240723, 0.9862338304519653, 0.05810397490859032, 0.19337895512580872, 0.09330624341964722, 0.20784133672714233, 0.998810350894928, 0.9587156176567078, 0.4564061760902405
6, 29, 46, 16Perc, last, 1.7556266784667969, 1.981933832168579, 0.4429680109024048, 0.37931835651397705, 0.2771633565425873, 0.658764123916626, 0.591946542263031, 0.4601479470729828, 15.372536659240723, 0.9862338304519653, 0.05810397490859032, 0.19337895512580872, 0.09054562449455261, 0.18788215517997742, 0.9984704256057739, 0.9709480404853821, 0.4638548493385315
6, 29, 45, 16Perc, first_last, 1.7556266784667969, 1.981933832168579, 0.4429680109024048, 0.37931835651397705, 0.2771633565425873, 0.658764123916626, 0.591946542263031, 0.4601479470729828, 15.372536659240723, 0.9862338304519653, 0.05810397490859032, 0.19337895512580872, 0.09247495234012604, 0.1940353661775589, 0.9981305003166199, 0.9709480404853821, 0.4626452326774597
6, 29, 12, 16Perc, new, 1.7556266784667969, 1.981933832168579, 0.4429680109024048, 0.37931835651397705, 0.2771633565425873, 0.658764123916626, 0.591946542263031, 0.4601479470729828, 15.372536659240723, 0.9862338304519653, 0.05810397490859032, 0.19337895512580872, 2.91396164894104, 2.904890775680542, 0.08174710720777512, 0.10091742873191833, 0.07582364976406097
6, 29, 46, fiveMovements, all, 1.7556266784667969, 1.981933832168579, 0.4429680109024048, 0.37931835651397705, 0.2771633565425873, 0.600581705570221, 0.5957992672920227, 0.7070438861846924, 5.433632850646973, 1.0, 0.13526569306850433, 0.13226255774497986, 0.10482440888881683, 0.18943357467651367, 1.0, 0.9516907930374146, 0.2005322128534317
6, 29, 54, fiveMovements, first, 1.7556266784667969, 1.981933832168579, 0.4429680109024048, 0.37931835651397705, 0.2771633565425873, 0.600581705570221, 0.5957992672920227, 0.7070438861846924, 5.433632850646973, 1.0, 0.13526569306850433, 0.13226255774497986, 0.10064707696437836, 0.11870186030864716, 0.9994612336158752, 0.9951691031455994, 0.19948679208755493
6, 29, 39, fiveMovements, last, 1.7556266784667969, 1.981933832168579, 0.4429680109024048, 0.37931835651397705, 0.2771633565425873, 0.600581705570221, 0.5957992672920227, 0.7070438861846924, 5.433632850646973, 1.0, 0.13526569306850433, 0.13226255774497986, 0.10866071283817291, 0.1484096795320511, 1.0, 0.9758453965187073, 0.19590698182582855
6, 29, 45, fiveMovements, first_last, 1.7556266784667969, 1.981933832168579, 0.4429680109024048, 0.37931835651397705, 0.2771633565425873, 0.600581705570221, 0.5957992672920227, 0.7070438861846924, 5.433632850646973, 1.0, 0.13526569306850433, 0.13226255774497986, 0.10518092662096024, 0.1311551332473755, 1.0, 0.9855072498321533, 0.20062725245952606
6, 29, 13, fiveMovements, new, 1.7556266784667969, 1.981933832168579, 0.4429680109024048, 0.37931835651397705, 0.2771633565425873, 0.600581705570221, 0.5957992672920227, 0.7070438861846924, 5.433632850646973, 1.0, 0.13526569306850433, 0.13226255774497986, 2.7192444801330566, 2.6754586696624756, 0.22575430572032928, 0.260869562625885, 0.06199708580970764
6, 29, 17, oneMovement, all, 1.7556266784667969, 1.981933832168579, 0.4429680109024048, 0.37931835651397705, 0.2771633565425873, 0.7270269989967346, 0.5932255983352661, 1.1184909343719482, 1.1153192520141602, 1.0, 1.0, 0.07878655940294266, 0.11964069306850433, 0.11960885673761368, 1.0, 1.0, 0.14457644522190094
6, 29, 17, oneMovement, first, 1.7556266784667969, 1.981933832168579, 0.4429680109024048, 0.37931835651397705, 0.2771633565425873, 0.7270269989967346, 0.5932255983352661, 1.1184909343719482, 1.1153192520141602, 1.0, 1.0, 0.07878655940294266, 0.11916055530309677, 0.11939748376607895, 1.0, 1.0, 0.14922919869422913
6, 29, 17, oneMovement, last, 1.7556266784667969, 1.981933832168579, 0.4429680109024048, 0.37931835651397705, 0.2771633565425873, 0.7270269989967346, 0.5932255983352661, 1.1184909343719482, 1.1153192520141602, 1.0, 1.0, 0.07878655940294266, 0.12027983367443085, 0.11949535459280014, 1.0, 1.0, 0.14116442203521729
6, 29, 17, oneMovement, first_last, 1.7556266784667969, 1.981933832168579, 0.4429680109024048, 0.37931835651397705, 0.2771633565425873, 0.7270269989967346, 0.5932255983352661, 1.1184909343719482, 1.1153192520141602, 1.0, 1.0, 0.07878655940294266, 0.1191641092300415, 0.11935265362262726, 1.0, 1.0, 0.14851577579975128
6, 29, 16, oneMovement, new, 1.7556266784667969, 1.981933832168579, 0.4429680109024048, 0.37931835651397705, 0.2771633565425873, 0.7270269989967346, 0.5932255983352661, 1.1184909343719482, 1.1153192520141602, 1.0, 1.0, 0.07878655940294266, 3.991527557373047, 3.898794174194336, 1.0, 1.0, 0.07878655940294266
7, 31, 47, 83Perc, all, 1.7452797889709473, 1.9998118877410889, 0.4477714002132416, 0.37279438972473145, 0.284368634223938, 0.6766421794891357, 0.4322047233581543, 0.16828642785549164, 0.45486411452293396, 0.9840078949928284, 0.8827258348464966, 0.5361210703849792, 0.15553289651870728, 0.32841312885284424, 0.981788694858551, 0.9204437136650085, 0.5267592668533325
7, 31, 36, 83Perc, first, 1.7452797889709473, 1.9998118877410889, 0.4477714002132416, 0.37279438972473145, 0.284368634223938, 0.6766421794891357, 0.4322047233581543, 0.16828642785549164, 0.45486411452293396, 0.9840078949928284, 0.8827258348464966, 0.5361210703849792, 0.16727754473686218, 0.3396138548851013, 0.9800274968147278, 0.9182250499725342, 0.5283195376396179
7, 31, 36, 83Perc, last, 1.7452797889709473, 1.9998118877410889, 0.4477714002132416, 0.37279438972473145, 0.284368634223938, 0.6766421794891357, 0.4322047233581543, 0.16828642785549164, 0.45486411452293396, 0.9840078949928284, 0.8827258348464966, 0.5361210703849792, 0.1590120792388916, 0.37154099345207214, 0.9805910587310791, 0.9115689396858215, 0.5301918983459473
7, 31, 42, 83Perc, first_last, 1.7452797889709473, 1.9998118877410889, 0.4477714002132416, 0.37279438972473145, 0.284368634223938, 0.6766421794891357, 0.4322047233581543, 0.16828642785549164, 0.45486411452293396, 0.9840078949928284, 0.8827258348464966, 0.5361210703849792, 0.1447453796863556, 0.32417914271354675, 0.9861565828323364, 0.9264659285545349, 0.5164612531661987
7, 31, 11, 83Perc, new, 1.7452797889709473, 1.9998118877410889, 0.4477714002132416, 0.37279438972473145, 0.284368634223938, 0.6766421794891357, 0.4322047233581543, 0.16828642785549164, 0.45486411452293396, 0.9840078949928284, 0.8827258348464966, 0.5361210703849792, 2.86356520652771, 2.8579013347625732, 0.07774137705564499, 0.08145800232887268, 0.06818536669015884
7, 31, 39, 60Perc, all, 1.7452797889709473, 1.9998118877410889, 0.4477714002132416, 0.37279438972473145, 0.284368634223938, 0.6421872973442078, 0.5310725569725037, 0.10065440088510513, 0.41739770770072937, 0.9945482611656189, 0.8928006291389465, 0.4813091456890106, 0.1397959142923355, 0.3040176331996918, 0.9850956201553345, 0.9280063509941101, 0.5093848705291748
7, 31, 40, 60Perc, first, 1.7452797889709473, 1.9998118877410889, 0.4477714002132416, 0.37279438972473145, 0.284368634223938, 0.6421872973442078, 0.5310725569725037, 0.10065440088510513, 0.41739770770072937, 0.9945482611656189, 0.8928006291389465, 0.4813091456890106, 0.1315404772758484, 0.25772324204444885, 0.9882171750068665, 0.9414557218551636, 0.493848592042923
7, 31, 27, 60Perc, last, 1.7452797889709473, 1.9998118877410889, 0.4477714002132416, 0.37279438972473145, 0.284368634223938, 0.6421872973442078, 0.5310725569725037, 0.10065440088510513, 0.41739770770072937, 0.9945482611656189, 0.8928006291389465, 0.4813091456890106, 0.16140933334827423, 0.283746600151062, 0.9832930564880371, 0.9339398741722107, 0.504179835319519
7, 31, 44, 60Perc, first_last, 1.7452797889709473, 1.9998118877410889, 0.4477714002132416, 0.37279438972473145, 0.284368634223938, 0.6421872973442078, 0.5310725569725037, 0.10065440088510513, 0.41739770770072937, 0.9945482611656189, 0.8928006291389465, 0.4813091456890106, 0.13247334957122803, 0.2915498614311218, 0.9878215193748474, 0.9295886158943176, 0.48115143179893494
7, 31, 16, 60Perc, new, 1.7452797889709473, 1.9998118877410889, 0.4477714002132416, 0.37279438972473145, 0.284368634223938, 0.6421872973442078, 0.5310725569725037, 0.10065440088510513, 0.41739770770072937, 0.9945482611656189, 0.8928006291389465, 0.4813091456890106, 2.8542275428771973, 2.846651792526245, 0.07452186942100525, 0.0771360769867897, 0.07831230014562607
7, 31, 50, 30Perc, all, 1.7452797889709473, 1.9998118877410889, 0.4477714002132416, 0.37279438972473145, 0.284368634223938, 0.6423605680465698, 0.5825262069702148, 0.4264279901981354, 16.518922805786133, 0.9678722023963928, 0.12480252981185913, 0.1597548872232437, 0.1006191149353981, 0.13561907410621643, 0.9916608333587646, 0.9810426831245422, 0.44245898723602295
7, 31, 53, 30Perc, first, 1.7452797889709473, 1.9998118877410889, 0.4477714002132416, 0.37279438972473145, 0.284368634223938, 0.6423605680465698, 0.5825262069702148, 0.4264279901981354, 16.518922805786133, 0.9678722023963928, 0.12480252981185913, 0.1597548872232437, 0.08553875237703323, 0.1679140329360962, 0.995874285697937, 0.9652448892593384, 0.44629374146461487
7, 31, 41, 30Perc, last, 1.7452797889709473, 1.9998118877410889, 0.4477714002132416, 0.37279438972473145, 0.284368634223938, 0.6423605680465698, 0.5825262069702148, 0.4264279901981354, 16.518922805786133, 0.9678722023963928, 0.12480252981185913, 0.1597548872232437, 0.12997372448444366, 0.2762405276298523, 0.9842872023582458, 0.9391785264015198, 0.4469658136367798
7, 31, 52, 30Perc, first_last, 1.7452797889709473, 1.9998118877410889, 0.4477714002132416, 0.37279438972473145, 0.284368634223938, 0.6423605680465698, 0.5825262069702148, 0.4264279901981354, 16.518922805786133, 0.9678722023963928, 0.12480252981185913, 0.1597548872232437, 0.08177264034748077, 0.1556638777256012, 0.9959620833396912, 0.9628751873970032, 0.45597943663597107
7, 31, 11, 30Perc, new, 1.7452797889709473, 1.9998118877410889, 0.4477714002132416, 0.37279438972473145, 0.284368634223938, 0.6423605680465698, 0.5825262069702148, 0.4264279901981354, 16.518922805786133, 0.9678722023963928, 0.12480252981185913, 0.1597548872232437, 2.896267890930176, 2.90415620803833, 0.0859375, 0.08135861158370972, 0.07187191396951675
7, 31, 37, 16Perc, all, 1.7452797889709473, 1.9998118877410889, 0.4477714002132416, 0.37279438972473145, 0.284368634223938, 0.662434995174408, 0.5868533849716187, 0.42560333013534546, 10.707476615905762, 0.9915024042129517, 0.05198776721954346, 0.16352060437202454, 0.10359282046556473, 0.22674503922462463, 0.9977906346321106, 0.9571865200996399, 0.44816169142723083
7, 31, 47, 16Perc, first, 1.7452797889709473, 1.9998118877410889, 0.4477714002132416, 0.37279438972473145, 0.284368634223938, 0.662434995174408, 0.5868533849716187, 0.42560333013534546, 10.707476615905762, 0.9915024042129517, 0.05198776721954346, 0.16352060437202454, 0.08766867220401764, 0.21940362453460693, 0.998810350894928, 0.9495412707328796, 0.43507876992225647
7, 31, 33, 16Perc, last, 1.7452797889709473, 1.9998118877410889, 0.4477714002132416, 0.37279438972473145, 0.284368634223938, 0.662434995174408, 0.5868533849716187, 0.42560333013534546, 10.707476615905762, 0.9915024042129517, 0.05198776721954346, 0.16352060437202454, 0.10972601175308228, 0.28776952624320984, 0.9969408512115479, 0.9403669834136963, 0.44523316621780396
7, 31, 29, 16Perc, first_last, 1.7452797889709473, 1.9998118877410889, 0.4477714002132416, 0.37279438972473145, 0.284368634223938, 0.662434995174408, 0.5868533849716187, 0.42560333013534546, 10.707476615905762, 0.9915024042129517, 0.05198776721954346, 0.16352060437202454, 0.11681850999593735, 0.3166458308696747, 0.9974507093429565, 0.9311926364898682, 0.44978514313697815
7, 31, 11, 16Perc, new, 1.7452797889709473, 1.9998118877410889, 0.4477714002132416, 0.37279438972473145, 0.284368634223938, 0.662434995174408, 0.5868533849716187, 0.42560333013534546, 10.707476615905762, 0.9915024042129517, 0.05198776721954346, 0.16352060437202454, 2.9198920726776123, 2.921957492828369, 0.08480625599622726, 0.07339449226856232, 0.06592392176389694
7, 31, 43, fiveMovements, all, 1.7452797889709473, 1.9998118877410889, 0.4477714002132416, 0.37279438972473145, 0.284368634223938, 0.6587494015693665, 0.5855350494384766, 0.768075168132782, 14.358589172363281, 1.0, 0.2222222238779068, 0.10926312953233719, 0.10834542661905289, 0.13119404017925262, 0.9994612336158752, 0.990338146686554, 0.2132357656955719
7, 31, 56, fiveMovements, first, 1.7452797889709473, 1.9998118877410889, 0.4477714002132416, 0.37279438972473145, 0.284368634223938, 0.6587494015693665, 0.5855350494384766, 0.768075168132782, 14.358589172363281, 1.0, 0.2222222238779068, 0.10926312953233719, 0.10002484917640686, 0.1288016140460968, 0.9994612336158752, 0.9855072498321533, 0.211683452129364
7, 31, 47, fiveMovements, last, 1.7452797889709473, 1.9998118877410889, 0.4477714002132416, 0.37279438972473145, 0.284368634223938, 0.6587494015693665, 0.5855350494384766, 0.768075168132782, 14.358589172363281, 1.0, 0.2222222238779068, 0.10926312953233719, 0.10521423071622849, 0.14348985254764557, 0.9994612336158752, 0.9855072498321533, 0.2121269702911377
7, 31, 49, fiveMovements, first_last, 1.7452797889709473, 1.9998118877410889, 0.4477714002132416, 0.37279438972473145, 0.284368634223938, 0.6587494015693665, 0.5855350494384766, 0.768075168132782, 14.358589172363281, 1.0, 0.2222222238779068, 0.10926312953233719, 0.10498536378145218, 0.12963539361953735, 0.9994612336158752, 0.9855072498321533, 0.21200025081634521
7, 31, 16, fiveMovements, new, 1.7452797889709473, 1.9998118877410889, 0.4477714002132416, 0.37279438972473145, 0.284368634223938, 0.6587494015693665, 0.5855350494384766, 0.768075168132782, 14.358589172363281, 1.0, 0.2222222238779068, 0.10926312953233719, 2.5835843086242676, 2.5573818683624268, 0.2295258641242981, 0.22705313563346863, 0.07067731022834778
7, 31, 18, oneMovement, all, 1.7452797889709473, 1.9998118877410889, 0.4477714002132416, 0.37279438972473145, 0.284368634223938, 0.6945946216583252, 0.5944663286209106, 1.1400682926177979, 1.1274269819259644, 1.0, 1.0, 0.07878655940294266, 0.12165103107690811, 0.12188620120286942, 1.0, 1.0, 0.10003411769866943
7, 31, 17, oneMovement, first, 1.7452797889709473, 1.9998118877410889, 0.4477714002132416, 0.37279438972473145, 0.284368634223938, 0.6945946216583252, 0.5944663286209106, 1.1400682926177979, 1.1274269819259644, 1.0, 1.0, 0.07878655940294266, 0.1214108020067215, 0.12168282270431519, 1.0, 1.0, 0.12674090266227722
7, 31, 17, oneMovement, last, 1.7452797889709473, 1.9998118877410889, 0.4477714002132416, 0.37279438972473145, 0.284368634223938, 0.6945946216583252, 0.5944663286209106, 1.1400682926177979, 1.1274269819259644, 1.0, 1.0, 0.07878655940294266, 0.12127240747213364, 0.1215379536151886, 1.0, 1.0, 0.13151772320270538
7, 31, 17, oneMovement, first_last, 1.7452797889709473, 1.9998118877410889, 0.4477714002132416, 0.37279438972473145, 0.284368634223938, 0.6945946216583252, 0.5944663286209106, 1.1400682926177979, 1.1274269819259644, 1.0, 1.0, 0.07878655940294266, 0.12148027122020721, 0.12175173312425613, 1.0, 1.0, 0.1273612678050995
7, 31, 14, oneMovement, new, 1.7452797889709473, 1.9998118877410889, 0.4477714002132416, 0.37279438972473145, 0.284368634223938, 0.6945946216583252, 0.5944663286209106, 1.1400682926177979, 1.1274269819259644, 1.0, 1.0, 0.07878655940294266, 4.211461544036865, 4.109579563140869, 1.0, 1.0, 0.07878655940294266
8, 23, 42, 83Perc, all, 1.7816237211227417, 1.969775915145874, 0.4330877363681793, 0.3777860403060913, 0.2858799695968628, 0.6308014392852783, 0.4337650239467621, 0.14717556536197662, 0.5813443064689636, 0.9858748316764832, 0.8437401056289673, 0.535028874874115, 0.14209431409835815, 0.2985827326774597, 0.9850998520851135, 0.9290015697479248, 0.5248869061470032
8, 23, 35, 83Perc, first, 1.7816237211227417, 1.969775915145874, 0.4330877363681793, 0.3777860403060913, 0.2858799695968628, 0.6308014392852783, 0.4337650239467621, 0.14717556536197662, 0.5813443064689636, 0.9858748316764832, 0.8437401056289673, 0.535028874874115, 0.15531069040298462, 0.384848952293396, 0.9835147261619568, 0.9014263153076172, 0.5139647126197815
8, 23, 42, 83Perc, last, 1.7816237211227417, 1.969775915145874, 0.4330877363681793, 0.3777860403060913, 0.2858799695968628, 0.6308014392852783, 0.4337650239467621, 0.14717556536197662, 0.5813443064689636, 0.9858748316764832, 0.8437401056289673, 0.535028874874115, 0.13399972021579742, 0.3077520728111267, 0.9887280464172363, 0.9213945865631104, 0.5258230566978455
8, 23, 31, 83Perc, first_last, 1.7816237211227417, 1.969775915145874, 0.4330877363681793, 0.3777860403060913, 0.2858799695968628, 0.6308014392852783, 0.4337650239467621, 0.14717556536197662, 0.5813443064689636, 0.9858748316764832, 0.8437401056289673, 0.535028874874115, 0.16757765412330627, 0.38790926337242126, 0.9803797006607056, 0.9080824255943298, 0.5097519159317017
8, 23, 11, 83Perc, new, 1.7816237211227417, 1.969775915145874, 0.4330877363681793, 0.3777860403060913, 0.2858799695968628, 0.6308014392852783, 0.4337650239467621, 0.14717556536197662, 0.5813443064689636, 0.9858748316764832, 0.8437401056289673, 0.535028874874115, 2.8561832904815674, 2.856687068939209, 0.07879812270402908, 0.07194928824901581, 0.06818536669015884
8, 23, 44, 60Perc, all, 1.7816237211227417, 1.969775915145874, 0.4330877363681793, 0.3777860403060913, 0.2858799695968628, 0.6116804480552673, 0.5317034721374512, 0.1418347805738449, 0.4910724461078644, 0.9890085458755493, 0.8706487417221069, 0.47468453645706177, 0.11303520202636719, 0.30838775634765625, 0.9915146231651306, 0.9244462251663208, 0.5198737978935242
8, 23, 25, 60Perc, first, 1.7816237211227417, 1.969775915145874, 0.4330877363681793, 0.3777860403060913, 0.2858799695968628, 0.6116804480552673, 0.5317034721374512, 0.1418347805738449, 0.4910724461078644, 0.9890085458755493, 0.8706487417221069, 0.47468453645706177, 0.15495824813842773, 0.31602367758750916, 0.9852275252342224, 0.9232594966888428, 0.5134069323539734
8, 23, 47, 60Perc, last, 1.7816237211227417, 1.969775915145874, 0.4330877363681793, 0.3777860403060913, 0.2858799695968628, 0.6116804480552673, 0.5317034721374512, 0.1418347805738449, 0.4910724461078644, 0.9890085458755493, 0.8706487417221069, 0.47468453645706177, 0.11106517165899277, 0.31192222237586975, 0.9918663501739502, 0.918117105960846, 0.49889591336250305
8, 23, 42, 60Perc, first_last, 1.7816237211227417, 1.969775915145874, 0.4330877363681793, 0.3777860403060913, 0.2858799695968628, 0.6116804480552673, 0.5317034721374512, 0.1418347805738449, 0.4910724461078644, 0.9890085458755493, 0.8706487417221069, 0.47468453645706177, 0.13156890869140625, 0.354038268327713, 0.9867663383483887, 0.9026898741722107, 0.5037066340446472
8, 23, 11, 60Perc, new, 1.7816237211227417, 1.969775915145874, 0.4330877363681793, 0.3777860403060913, 0.2858799695968628, 0.6116804480552673, 0.5317034721374512, 0.1418347805738449, 0.4910724461078644, 0.9890085458755493, 0.8706487417221069, 0.47468453645706177, 2.8641457557678223, 2.855121374130249, 0.07698395103216171, 0.07318037748336792, 0.07831230014562607
8, 23, 45, 30Perc, all, 1.7816237211227417, 1.969775915145874, 0.4330877363681793, 0.3777860403060913, 0.2858799695968628, 0.6457576155662537, 0.5552480816841125, 0.4166930019855499, 14.796151161193848, 0.971646785736084, 0.18799367547035217, 0.16659419238567352, 0.09068146347999573, 0.17455792427062988, 0.9942064881324768, 0.9652448892593384, 0.45372602343559265
8, 23, 39, 30Perc, first, 1.7816237211227417, 1.969775915145874, 0.4330877363681793, 0.3777860403060913, 0.2858799695968628, 0.6457576155662537, 0.5552480816841125, 0.4166930019855499, 14.796151161193848, 0.971646785736084, 0.18799367547035217, 0.16659419238567352, 0.10197818279266357, 0.18127025663852692, 0.9923630356788635, 0.9636650681495667, 0.4538050889968872
8, 23, 52, 30Perc, last, 1.7816237211227417, 1.969775915145874, 0.4330877363681793, 0.3777860403060913, 0.2858799695968628, 0.6457576155662537, 0.5552480816841125, 0.4166930019855499, 14.796151161193848, 0.971646785736084, 0.18799367547035217, 0.16659419238567352, 0.08201685547828674, 0.16671408712863922, 0.9965765476226807, 0.9644549489021301, 0.4506028890609741
8, 23, 46, 30Perc, first_last, 1.7816237211227417, 1.969775915145874, 0.4330877363681793, 0.3777860403060913, 0.2858799695968628, 0.6457576155662537, 0.5552480816841125, 0.4166930019855499, 14.796151161193848, 0.971646785736084, 0.18799367547035217, 0.16659419238567352, 0.08649121224880219, 0.14567992091178894, 0.9952598214149475, 0.9723538756370544, 0.4576398432254791
8, 23, 12, 30Perc, new, 1.7816237211227417, 1.969775915145874, 0.4330877363681793, 0.3777860403060913, 0.2858799695968628, 0.6457576155662537, 0.5552480816841125, 0.4166930019855499, 14.796151161193848, 0.971646785736084, 0.18799367547035217, 0.16659419238567352, 2.8846161365509033, 2.891019582748413, 0.08690308779478073, 0.07266982644796371, 0.07187191396951675
8, 23, 43, 16Perc, all, 1.7816237211227417, 1.969775915145874, 0.4330877363681793, 0.3777860403060913, 0.2858799695968628, 0.6240440607070923, 0.5732612013816833, 0.4392858147621155, 17.584566116333008, 0.9904826879501343, 0.08715596050024033, 0.16030558943748474, 0.0867333933711052, 0.3276223838329315, 0.9979605674743652, 0.9067278504371643, 0.45611968636512756
8, 23, 88, 16Perc, first, 1.7816237211227417, 1.969775915145874, 0.4330877363681793, 0.3777860403060913, 0.2858799695968628, 0.6240440607070923, 0.5732612013816833, 0.4392858147621155, 17.584566116333008, 0.9904826879501343, 0.08715596050024033, 0.16030558943748474, 0.05429132282733917, 0.14563898742198944, 0.9984704256057739, 0.9556574821472168, 0.4426547884941101
8, 23, 44, 16Perc, last, 1.7816237211227417, 1.969775915145874, 0.4330877363681793, 0.3777860403060913, 0.2858799695968628, 0.6240440607070923, 0.5732612013816833, 0.4392858147621155, 17.584566116333008, 0.9904826879501343, 0.08715596050024033, 0.16030558943748474, 0.08382023125886917, 0.29609227180480957, 0.9984704256057739, 0.9159021377563477, 0.45284101366996765
8, 23, 53, 16Perc, first_last, 1.7816237211227417, 1.969775915145874, 0.4330877363681793, 0.3777860403060913, 0.2858799695968628, 0.6240440607070923, 0.5732612013816833, 0.4392858147621155, 17.584566116333008, 0.9904826879501343, 0.08715596050024033, 0.16030558943748474, 0.07619620859622955, 0.20914386212825775, 0.9986403584480286, 0.9388379454612732, 0.45194971561431885
8, 23, 12, 16Perc, new, 1.7816237211227417, 1.969775915145874, 0.4330877363681793, 0.3777860403060913, 0.2858799695968628, 0.6240440607070923, 0.5732612013816833, 0.4392858147621155, 17.584566116333008, 0.9904826879501343, 0.08715596050024033, 0.16030558943748474, 2.9050660133361816, 2.9065442085266113, 0.08412644267082214, 0.07951070368289948, 0.07582364976406097
8, 23, 37, fiveMovements, all, 1.7816237211227417, 1.969775915145874, 0.4330877363681793, 0.3777860403060913, 0.2858799695968628, 0.6757149696350098, 0.5691249966621399, 0.6954829096794128, 14.124134063720703, 1.0, 0.2415459007024765, 0.12798580527305603, 0.10255907475948334, 0.13430698215961456, 1.0, 0.9855072498321533, 0.21044795215129852
8, 23, 47, fiveMovements, first, 1.7816237211227417, 1.969775915145874, 0.4330877363681793, 0.3777860403060913, 0.2858799695968628, 0.6757149696350098, 0.5691249966621399, 0.6954829096794128, 14.124134063720703, 1.0, 0.2415459007024765, 0.12798580527305603, 0.09710364043712616, 0.1283738911151886, 0.9994612336158752, 0.9855072498321533, 0.21266552805900574
8, 23, 40, fiveMovements, last, 1.7816237211227417, 1.969775915145874, 0.4330877363681793, 0.3777860403060913, 0.2858799695968628, 0.6757149696350098, 0.5691249966621399, 0.6954829096794128, 14.124134063720703, 1.0, 0.2415459007024765, 0.12798580527305603, 0.09959481656551361, 0.11827297508716583, 1.0, 0.9855072498321533, 0.2143445461988449
8, 23, 37, fiveMovements, first_last, 1.7816237211227417, 1.969775915145874, 0.4330877363681793, 0.3777860403060913, 0.2858799695968628, 0.6757149696350098, 0.5691249966621399, 0.6954829096794128, 14.124134063720703, 1.0, 0.2415459007024765, 0.12798580527305603, 0.1017334908246994, 0.13822904229164124, 1.0, 0.9855072498321533, 0.20826205611228943
8, 23, 15, fiveMovements, new, 1.7816237211227417, 1.969775915145874, 0.4330877363681793, 0.3777860403060913, 0.2858799695968628, 0.6757149696350098, 0.5691249966621399, 0.6954829096794128, 14.124134063720703, 1.0, 0.2415459007024765, 0.12798580527305603, 2.611295461654663, 2.57502818107605, 0.23168103396892548, 0.20772947371006012, 0.06557688862085342
8, 23, 14, oneMovement, all, 1.7816237211227417, 1.969775915145874, 0.4330877363681793, 0.3777860403060913, 0.2858799695968628, 0.7405405640602112, 0.5813145637512207, 1.1417040824890137, 1.1355007886886597, 1.0, 1.0, 0.07878655940294266, 0.1104261577129364, 0.11039979755878448, 1.0, 1.0, 0.43543535470962524
8, 23, 14, oneMovement, first, 1.7816237211227417, 1.969775915145874, 0.4330877363681793, 0.3777860403060913, 0.2858799695968628, 0.7405405640602112, 0.5813145637512207, 1.1417040824890137, 1.1355007886886597, 1.0, 1.0, 0.07878655940294266, 0.1101953461766243, 0.11058789491653442, 1.0, 1.0, 0.43723440170288086
8, 23, 14, oneMovement, last, 1.7816237211227417, 1.969775915145874, 0.4330877363681793, 0.3777860403060913, 0.2858799695968628, 0.7405405640602112, 0.5813145637512207, 1.1417040824890137, 1.1355007886886597, 1.0, 1.0, 0.07878655940294266, 0.11142800748348236, 0.1104191318154335, 1.0, 1.0, 0.436458945274353
8, 23, 14, oneMovement, first_last, 1.7816237211227417, 1.969775915145874, 0.4330877363681793, 0.3777860403060913, 0.2858799695968628, 0.7405405640602112, 0.5813145637512207, 1.1417040824890137, 1.1355007886886597, 1.0, 1.0, 0.07878655940294266, 0.1105063185095787, 0.11051522195339203, 1.0, 1.0, 0.4357455372810364
8, 23, 16, oneMovement, new, 1.7816237211227417, 1.969775915145874, 0.4330877363681793, 0.3777860403060913, 0.2858799695968628, 0.7405405640602112, 0.5813145637512207, 1.1417040824890137, 1.1355007886886597, 1.0, 1.0, 0.07878655940294266, 4.0179643630981445, 3.9254987239837646, 1.0, 1.0, 0.07878655940294266
9, 37, 32, 83Perc, all, 1.736873984336853, 2.002667188644409, 0.45171576738357544, 0.3763233721256256, 0.2812287509441376, 0.6820948719978333, 0.4292401373386383, 0.14148272573947906, 0.5392075181007385, 0.9872485995292664, 0.8554674983024597, 0.4991418421268463, 0.1676940768957138, 0.36650359630584717, 0.9812251329421997, 0.9099841713905334, 0.5250428915023804
9, 37, 40, 83Perc, first, 1.736873984336853, 2.002667188644409, 0.45171576738357544, 0.3763233721256256, 0.2812287509441376, 0.6820948719978333, 0.4292401373386383, 0.14148272573947906, 0.5392075181007385, 0.9872485995292664, 0.8554674983024597, 0.4991418421268463, 0.15971916913986206, 0.37451040744781494, 0.9811546802520752, 0.9103010892868042, 0.5267592668533325
9, 37, 37, 83Perc, last, 1.736873984336853, 2.002667188644409, 0.45171576738357544, 0.3763233721256256, 0.2812287509441376, 0.6820948719978333, 0.4292401373386383, 0.14148272573947906, 0.5392075181007385, 0.9872485995292664, 0.8554674983024597, 0.4991418421268463, 0.1660751849412918, 0.40271127223968506, 0.9789707064628601, 0.8957210779190063, 0.5353409051895142
9, 37, 26, 83Perc, first_last, 1.736873984336853, 2.002667188644409, 0.45171576738357544, 0.3763233721256256, 0.2812287509441376, 0.6820948719978333, 0.4292401373386383, 0.14148272573947906, 0.5392075181007385, 0.9872485995292664, 0.8554674983024597, 0.4991418421268463, 0.18377672135829926, 0.4162713289260864, 0.9774208068847656, 0.9039619565010071, 0.5077235102653503
9, 37, 12, 83Perc, new, 1.736873984336853, 2.002667188644409, 0.45171576738357544, 0.3763233721256256, 0.2812287509441376, 0.6820948719978333, 0.4292401373386383, 0.14148272573947906, 0.5392075181007385, 0.9872485995292664, 0.8554674983024597, 0.4991418421268463, 2.862351179122925, 2.8631057739257812, 0.07823453098535538, 0.07702060043811798, 0.06818536669015884
9, 37, 35, 60Perc, all, 1.736873984336853, 2.002667188644409, 0.45171576738357544, 0.3763233721256256, 0.2812287509441376, 0.6409211158752441, 0.5270504951477051, 0.1198791041970253, 0.4130159616470337, 0.9921301603317261, 0.8931962251663208, 0.5007097721099854, 0.1508074253797531, 0.3184753954410553, 0.9821938872337341, 0.9220727682113647, 0.4890378415584564
9, 37, 49, 60Perc, first, 1.736873984336853, 2.002667188644409, 0.45171576738357544, 0.3763233721256256, 0.2812287509441376, 0.6409211158752441, 0.5270504951477051, 0.1198791041970253, 0.4130159616470337, 0.9921301603317261, 0.8931962251663208, 0.5007097721099854, 0.11923549324274063, 0.24511399865150452, 0.9913387298583984, 0.9477847814559937, 0.501656174659729
9, 37, 34, 60Perc, last, 1.736873984336853, 2.002667188644409, 0.45171576738357544, 0.3763233721256256, 0.2812287509441376, 0.6409211158752441, 0.5270504951477051, 0.1198791041970253, 0.4130159616470337, 0.9921301603317261, 0.8931962251663208, 0.5007097721099854, 0.14542773365974426, 0.2862280011177063, 0.9855352640151978, 0.9319620132446289, 0.48682963848114014
9, 37, 28, 60Perc, first_last, 1.736873984336853, 2.002667188644409, 0.45171576738357544, 0.3763233721256256, 0.2812287509441376, 0.6409211158752441, 0.5270504951477051, 0.1198791041970253, 0.4130159616470337, 0.9921301603317261, 0.8931962251663208, 0.5007097721099854, 0.16415077447891235, 0.2946397662162781, 0.9817981719970703, 0.9351266026496887, 0.494716078042984
9, 37, 11, 60Perc, new, 1.736873984336853, 2.002667188644409, 0.45171576738357544, 0.3763233721256256, 0.2812287509441376, 0.6409211158752441, 0.5270504951477051, 0.1198791041970253, 0.4130159616470337, 0.9921301603317261, 0.8931962251663208, 0.5007097721099854, 2.8746135234832764, 2.873117685317993, 0.07729171216487885, 0.07041139155626297, 0.07728706300258636
9, 37, 55, 30Perc, all, 1.736873984336853, 2.002667188644409, 0.45171576738357544, 0.3763233721256256, 0.2812287509441376, 0.6422025561332703, 0.5885748267173767, 0.45665526390075684, 21.03142547607422, 0.9664676785469055, 0.06319115310907364, 0.17133821547031403, 0.08450821042060852, 0.16556230187416077, 0.9948209524154663, 0.9628751873970032, 0.43277326226234436
9, 37, 53, 30Perc, first, 1.736873984336853, 2.002667188644409, 0.45171576738357544, 0.3763233721256256, 0.2812287509441376, 0.6422025561332703, 0.5885748267173767, 0.45665526390075684, 21.03142547607422, 0.9664676785469055, 0.06319115310907364, 0.17133821547031403, 0.0873006284236908, 0.14042328298091888, 0.9959620833396912, 0.9739336371421814, 0.4555445611476898
9, 37, 45, 30Perc, last, 1.736873984336853, 2.002667188644409, 0.45171576738357544, 0.3763233721256256, 0.2812287509441376, 0.6422025561332703, 0.5885748267173767, 0.45665526390075684, 21.03142547607422, 0.9664676785469055, 0.06319115310907364, 0.17133821547031403, 0.09804274886846542, 0.1582053005695343, 0.9945575594902039, 0.9739336371421814, 0.46392568945884705
9, 37, 50, 30Perc, first_last, 1.736873984336853, 2.002667188644409, 0.45171576738357544, 0.3763233721256256, 0.2812287509441376, 0.6422025561332703, 0.5885748267173767, 0.45665526390075684, 21.03142547607422, 0.9664676785469055, 0.06319115310907364, 0.17133821547031403, 0.10502279549837112, 0.16953985393047333, 0.9915730357170105, 0.9652448892593384, 0.4328523278236389
9, 37, 12, 30Perc, new, 1.736873984336853, 2.002667188644409, 0.45171576738357544, 0.3763233721256256, 0.2812287509441376, 0.6422025561332703, 0.5885748267173767, 0.45665526390075684, 21.03142547607422, 0.9664676785469055, 0.06319115310907364, 0.17133821547031403, 2.89797043800354, 2.8964436054229736, 0.08584971725940704, 0.08214849978685379, 0.07187191396951675
9, 37, 68, 16Perc, all, 1.736873984336853, 2.002667188644409, 0.45171576738357544, 0.3763233721256256, 0.2812287509441376, 0.6647292971611023, 0.5914053916931152, 0.4408373534679413, 17.594118118286133, 0.9898028373718262, 0.03975535184144974, 0.13569951057434082, 0.07492981851100922, 0.10347414016723633, 0.9981305003166199, 0.9862385392189026, 0.4499124586582184
9, 37, 57, 16Perc, first, 1.736873984336853, 2.002667188644409, 0.45171576738357544, 0.3763233721256256, 0.2812287509441376, 0.6647292971611023, 0.5914053916931152, 0.4408373534679413, 17.594118118286133, 0.9898028373718262, 0.03975535184144974, 0.13569951057434082, 0.08416108787059784, 0.14927887916564941, 0.9981305003166199, 0.9770641922950745, 0.44701576232910156
9, 37, 38, 16Perc, last, 1.736873984336853, 2.002667188644409, 0.45171576738357544, 0.3763233721256256, 0.2812287509441376, 0.6647292971611023, 0.5914053916931152, 0.4408373534679413, 17.594118118286133, 0.9898028373718262, 0.03975535184144974, 0.13569951057434082, 0.10455322265625, 0.17182043194770813, 0.9979605674743652, 0.9724770784378052, 0.4560241997241974
9, 37, 50, 16Perc, first_last, 1.736873984336853, 2.002667188644409, 0.45171576738357544, 0.3763233721256256, 0.2812287509441376, 0.6647292971611023, 0.5914053916931152, 0.4408373534679413, 17.594118118286133, 0.9898028373718262, 0.03975535184144974, 0.13569951057434082, 0.09127794206142426, 0.1341390162706375, 0.9977906346321106, 0.9831804037094116, 0.4583160877227783
9, 37, 12, 16Perc, new, 1.736873984336853, 2.002667188644409, 0.45171576738357544, 0.3763233721256256, 0.2812287509441376, 0.6647292971611023, 0.5914053916931152, 0.4408373534679413, 17.594118118286133, 0.9898028373718262, 0.03975535184144974, 0.13569951057434082, 2.9181737899780273, 2.917121648788452, 0.08361658453941345, 0.08409786224365234, 0.07582364976406097
9, 37, 57, fiveMovements, all, 1.736873984336853, 2.002667188644409, 0.45171576738357544, 0.3763233721256256, 0.2812287509441376, 0.6650509238243103, 0.5835392475128174, 0.6198926568031311, 6.398429870605469, 1.0, 0.24637681245803833, 0.10951656848192215, 0.10266736149787903, 0.1432153880596161, 1.0, 0.990338146686554, 0.21656212210655212
9, 37, 41, fiveMovements, first, 1.736873984336853, 2.002667188644409, 0.45171576738357544, 0.3763233721256256, 0.2812287509441376, 0.6650509238243103, 0.5835392475128174, 0.6198926568031311, 6.398429870605469, 1.0, 0.24637681245803833, 0.10951656848192215, 0.11377229541540146, 0.1528564989566803, 1.0, 0.9806763529777527, 0.21570678055286407
9, 37, 47, fiveMovements, last, 1.736873984336853, 2.002667188644409, 0.45171576738357544, 0.3763233721256256, 0.2812287509441376, 0.6650509238243103, 0.5835392475128174, 0.6198926568031311, 6.398429870605469, 1.0, 0.24637681245803833, 0.10951656848192215, 0.10895156860351562, 0.14288464188575745, 1.0, 0.990338146686554, 0.21599188446998596
9, 37, 39, fiveMovements, first_last, 1.736873984336853, 2.002667188644409, 0.45171576738357544, 0.3763233721256256, 0.2812287509441376, 0.6650509238243103, 0.5835392475128174, 0.6198926568031311, 6.398429870605469, 1.0, 0.24637681245803833, 0.10951656848192215, 0.11544810980558395, 0.15381869673728943, 0.9994612336158752, 0.990338146686554, 0.21535830199718475
9, 37, 13, fiveMovements, new, 1.736873984336853, 2.002667188644409, 0.45171576738357544, 0.3763233721256256, 0.2812287509441376, 0.6650509238243103, 0.5835392475128174, 0.6198926568031311, 6.398429870605469, 1.0, 0.24637681245803833, 0.10951656848192215, 2.7366936206817627, 2.6961278915405273, 0.22898706793785095, 0.23188406229019165, 0.06199708580970764
9, 37, 16, oneMovement, all, 1.736873984336853, 2.002667188644409, 0.45171576738357544, 0.3763233721256256, 0.2812287509441376, 0.6513513326644897, 0.5888209939002991, 1.1740283966064453, 1.1782121658325195, 1.0, 1.0, 0.07878655940294266, 0.12476325035095215, 0.1251755952835083, 1.0, 1.0, 0.18480722606182098
9, 37, 17, oneMovement, first, 1.736873984336853, 2.002667188644409, 0.45171576738357544, 0.3763233721256256, 0.2812287509441376, 0.6513513326644897, 0.5888209939002991, 1.1740283966064453, 1.1782121658325195, 1.0, 1.0, 0.07878655940294266, 0.12506753206253052, 0.1254030168056488, 1.0, 1.0, 0.1451968103647232
9, 37, 18, oneMovement, last, 1.736873984336853, 2.002667188644409, 0.45171576738357544, 0.3763233721256256, 0.2812287509441376, 0.6513513326644897, 0.5888209939002991, 1.1740283966064453, 1.1782121658325195, 1.0, 1.0, 0.07878655940294266, 0.1252450793981552, 0.1255623698234558, 1.0, 1.0, 0.11684605479240417
9, 37, 17, oneMovement, first_last, 1.736873984336853, 2.002667188644409, 0.45171576738357544, 0.3763233721256256, 0.2812287509441376, 0.6513513326644897, 0.5888209939002991, 1.1740283966064453, 1.1782121658325195, 1.0, 1.0, 0.07878655940294266, 0.12496411800384521, 0.1254619061946869, 1.0, 1.0, 0.14392505586147308
9, 37, 17, oneMovement, new, 1.736873984336853, 2.002667188644409, 0.45171576738357544, 0.3763233721256256, 0.2812287509441376, 0.6513513326644897, 0.5888209939002991, 1.1740283966064453, 1.1782121658325195, 1.0, 1.0, 0.07878655940294266, 3.9315078258514404, 3.842879056930542, 1.0, 1.0, 0.07878655940294266
10, 31, 40, 83Perc, all, 1.7501848936080933, 1.986343502998352, 0.444593220949173, 0.3790165185928345, 0.27412891387939453, 0.6755959987640381, 0.42752379179000854, 0.13844530284404755, 0.4745526909828186, 0.9910176396369934, 0.8709984421730042, 0.5267592668533325, 0.15262173116207123, 0.35280641913414, 0.9839374423027039, 0.9125198125839233, 0.5159931182861328
10, 31, 35, 83Perc, first, 1.7501848936080933, 1.986343502998352, 0.444593220949173, 0.3790165185928345, 0.27412891387939453, 0.6755959987640381, 0.42752379179000854, 0.13844530284404755, 0.4745526909828186, 0.9910176396369934, 0.8709984421730042, 0.5267592668533325, 0.16986897587776184, 0.33026987314224243, 0.9786185026168823, 0.9210776686668396, 0.5244187712669373
10, 31, 31, 83Perc, last, 1.7501848936080933, 1.986343502998352, 0.444593220949173, 0.3790165185928345, 0.27412891387939453, 0.6755959987640381, 0.42752379179000854, 0.13844530284404755, 0.4745526909828186, 0.9910176396369934, 0.8709984421730042, 0.5267592668533325, 0.16979053616523743, 0.3408181369304657, 0.979921817779541, 0.9169571995735168, 0.5259791016578674
10, 31, 38, 83Perc, first_last, 1.7501848936080933, 1.986343502998352, 0.444593220949173, 0.3790165185928345, 0.27412891387939453, 0.6755959987640381, 0.42752379179000854, 0.13844530284404755, 0.4745526909828186, 0.9910176396369934, 0.8709984421730042, 0.5267592668533325, 0.16153959929943085, 0.32616016268730164, 0.9813660383224487, 0.9207606911659241, 0.5251989364624023
10, 31, 11, 83Perc, new, 1.7501848936080933, 1.986343502998352, 0.444593220949173, 0.3790165185928345, 0.27412891387939453, 0.6755959987640381, 0.42752379179000854, 0.13844530284404755, 0.4745526909828186, 0.9910176396369934, 0.8709984421730042, 0.5267592668533325, 2.862154245376587, 2.859002113342285, 0.07612103223800659, 0.09128367900848389, 0.06818536669015884
10, 31, 41, 60Perc, all, 1.7501848936080933, 1.986343502998352, 0.444593220949173, 0.3790165185928345, 0.27412891387939453, 0.6464210748672485, 0.5470820069313049, 0.12028969079256058, 0.37624379992485046, 0.9913827180862427, 0.8987341523170471, 0.47996845841407776, 0.14481012523174286, 0.2837177813053131, 0.9854913353919983, 0.9410601258277893, 0.49597790837287903
10, 31, 44, 60Perc, first, 1.7501848936080933, 1.986343502998352, 0.444593220949173, 0.3790165185928345, 0.27412891387939453, 0.6464210748672485, 0.5470820069313049, 0.12028969079256058, 0.37624379992485046, 0.9913827180862427, 0.8987341523170471, 0.47996845841407776, 0.12899984419345856, 0.28864631056785583, 0.9890965223312378, 0.9323576092720032, 0.5037066340446472
10, 31, 39, 60Perc, last, 1.7501848936080933, 1.986343502998352, 0.444593220949173, 0.3790165185928345, 0.27412891387939453, 0.6464210748672485, 0.5470820069313049, 0.12028969079256058, 0.37624379992485046, 0.9913827180862427, 0.8987341523170471, 0.47996845841407776, 0.13834711909294128, 0.2484874278306961, 0.9868102669715881, 0.9465981125831604, 0.5044164061546326
10, 31, 38, 60Perc, first_last, 1.7501848936080933, 1.986343502998352, 0.444593220949173, 0.3790165185928345, 0.27412891387939453, 0.6464210748672485, 0.5470820069313049, 0.12028969079256058, 0.37624379992485046, 0.9913827180862427, 0.8987341523170471, 0.47996845841407776, 0.14048388600349426, 0.27475860714912415, 0.9863266944885254, 0.9414557218551636, 0.5007886290550232
10, 31, 11, 60Perc, new, 1.7501848936080933, 1.986343502998352, 0.444593220949173, 0.3790165185928345, 0.27412891387939453, 0.6464210748672485, 0.5470820069313049, 0.12028969079256058, 0.37624379992485046, 0.9913827180862427, 0.8987341523170471, 0.47996845841407776, 2.869236946105957, 2.8716087341308594, 0.07733567804098129, 0.07001582533121109, 0.07831230014562607
10, 31, 51, 30Perc, all, 1.7501848936080933, 1.986343502998352, 0.444593220949173, 0.3790165185928345, 0.27412891387939453, 0.6641649603843689, 0.5854121446609497, 0.41971355676651, 12.951614379882812, 0.9712956547737122, 0.07345971465110779, 0.13168610632419586, 0.08928460627794266, 0.1616060733795166, 0.9955231547355652, 0.9660347700119019, 0.4443565905094147
10, 31, 28, 30Perc, first, 1.7501848936080933, 1.986343502998352, 0.444593220949173, 0.3790165185928345, 0.27412891387939453, 0.6641649603843689, 0.5854121446609497, 0.41971355676651, 12.951614379882812, 0.9712956547737122, 0.07345971465110779, 0.13168610632419586, 0.12613320350646973, 0.2663341164588928, 0.991397500038147, 0.9415481686592102, 0.4504842758178711
10, 31, 37, 30Perc, last, 1.7501848936080933, 1.986343502998352, 0.444593220949173, 0.3790165185928345, 0.27412891387939453, 0.6641649603843689, 0.5854121446609497, 0.41971355676651, 12.951614379882812, 0.9712956547737122, 0.07345971465110779, 0.13168610632419586, 0.13445830345153809, 0.25868624448776245, 0.9857795238494873, 0.9447077512741089, 0.4537655711174011
10, 31, 55, 30Perc, first_last, 1.7501848936080933, 1.986343502998352, 0.444593220949173, 0.3790165185928345, 0.27412891387939453, 0.6641649603843689, 0.5854121446609497, 0.41971355676651, 12.951614379882812, 0.9712956547737122, 0.07345971465110779, 0.13168610632419586, 0.088422991335392, 0.20297029614448547, 0.993855357170105, 0.9526066184043884, 0.45657244324684143
10, 31, 12, 30Perc, new, 1.7501848936080933, 1.986343502998352, 0.444593220949173, 0.3790165185928345, 0.27412891387939453, 0.6641649603843689, 0.5854121446609497, 0.41971355676651, 12.951614379882812, 0.9712956547737122, 0.07345971465110779, 0.13168610632419586, 2.8924412727355957, 2.892932176589966, 0.0853230357170105, 0.08688783645629883, 0.07187191396951675
10, 31, 86, 16Perc, all, 1.7501848936080933, 1.986343502998352, 0.444593220949173, 0.3790165185928345, 0.27412891387939453, 0.6677883267402649, 0.5992041826248169, 0.4709642827510834, 18.624467849731445, 0.9906526207923889, 0.06880734115839005, 0.19583001732826233, 0.057103678584098816, 0.08768725395202637, 0.9989802837371826, 0.9892966151237488, 0.4498169720172882
10, 31, 54, 16Perc, first, 1.7501848936080933, 1.986343502998352, 0.444593220949173, 0.3790165185928345, 0.27412891387939453, 0.6677883267402649, 0.5992041826248169, 0.4709642827510834, 18.624467849731445, 0.9906526207923889, 0.06880734115839005, 0.19583001732826233, 0.07996292412281036, 0.17349477112293243, 0.9986403584480286, 0.9571865200996399, 0.44889384508132935
10, 31, 90, 16Perc, last, 1.7501848936080933, 1.986343502998352, 0.444593220949173, 0.3790165185928345, 0.27412891387939453, 0.6677883267402649, 0.5992041826248169, 0.4709642827510834, 18.624467849731445, 0.9906526207923889, 0.06880734115839005, 0.19583001732826233, 0.05697585642337799, 0.08429958671331406, 0.9976206421852112, 0.9892966151237488, 0.4426547884941101
10, 31, 42, 16Perc, first_last, 1.7501848936080933, 1.986343502998352, 0.444593220949173, 0.3790165185928345, 0.27412891387939453, 0.6677883267402649, 0.5992041826248169, 0.4709642827510834, 18.624467849731445, 0.9906526207923889, 0.06880734115839005, 0.19583001732826233, 0.09502892941236496, 0.2533230185508728, 0.9984704256057739, 0.9434250593185425, 0.4458061456680298
10, 31, 11, 16Perc, new, 1.7501848936080933, 1.986343502998352, 0.444593220949173, 0.3790165185928345, 0.27412891387939453, 0.6677883267402649, 0.5992041826248169, 0.4709642827510834, 18.624467849731445, 0.9906526207923889, 0.06880734115839005, 0.19583001732826233, 2.9166483879089355, 2.930227279663086, 0.08514615893363953, 0.07033639401197433, 0.06592392176389694
10, 31, 58, fiveMovements, all, 1.7501848936080933, 1.986343502998352, 0.444593220949173, 0.3790165185928345, 0.27412891387939453, 0.626272439956665, 0.5991256237030029, 0.6946959495544434, 14.038315773010254, 0.9989224076271057, 0.16908212006092072, 0.12209339439868927, 0.0961984246969223, 0.16397419571876526, 1.0, 0.9806763529777527, 0.20861053466796875
10, 31, 65, fiveMovements, first, 1.7501848936080933, 1.986343502998352, 0.444593220949173, 0.3790165185928345, 0.27412891387939453, 0.626272439956665, 0.5991256237030029, 0.6946959495544434, 14.038315773010254, 0.9989224076271057, 0.16908212006092072, 0.12209339439868927, 0.09302502125501633, 0.1558617651462555, 0.9994612336158752, 0.9758453965187073, 0.20173604786396027
10, 31, 37, fiveMovements, last, 1.7501848936080933, 1.986343502998352, 0.444593220949173, 0.3790165185928345, 0.27412891387939453, 0.626272439956665, 0.5991256237030029, 0.6946959495544434, 14.038315773010254, 0.9989224076271057, 0.16908212006092072, 0.12209339439868927, 0.10827206820249557, 0.25874853134155273, 1.0, 0.9323671460151672, 0.20281314849853516
10, 31, 52, fiveMovements, first_last, 1.7501848936080933, 1.986343502998352, 0.444593220949173, 0.3790165185928345, 0.27412891387939453, 0.626272439956665, 0.5991256237030029, 0.6946959495544434, 14.038315773010254, 0.9989224076271057, 0.16908212006092072, 0.12209339439868927, 0.09980853646993637, 0.2028449922800064, 0.9994612336158752, 0.95652174949646, 0.20636127889156342
10, 31, 12, fiveMovements, new, 1.7501848936080933, 1.986343502998352, 0.444593220949173, 0.3790165185928345, 0.27412891387939453, 0.626272439956665, 0.5991256237030029, 0.6946959495544434, 14.038315773010254, 0.9989224076271057, 0.16908212006092072, 0.12209339439868927, 2.796571969985962, 2.750128746032715, 0.23221983015537262, 0.2222222238779068, 0.06199708580970764
10, 31, 16, oneMovement, all, 1.7501848936080933, 1.986343502998352, 0.444593220949173, 0.3790165185928345, 0.27412891387939453, 0.7054054141044617, 0.6060671806335449, 1.183483600616455, 1.2765308618545532, 1.0, 1.0, 0.07878655940294266, 0.1208706796169281, 0.12173968553543091, 1.0, 1.0, 0.17131423950195312
10, 31, 15, oneMovement, first, 1.7501848936080933, 1.986343502998352, 0.444593220949173, 0.3790165185928345, 0.27412891387939453, 0.7054054141044617, 0.6060671806335449, 1.183483600616455, 1.2765308618545532, 1.0, 1.0, 0.07878655940294266, 0.12060631811618805, 0.12177421897649765, 1.0, 1.0, 0.23794162273406982
10, 31, 15, oneMovement, last, 1.7501848936080933, 1.986343502998352, 0.444593220949173, 0.3790165185928345, 0.27412891387939453, 0.7054054141044617, 0.6060671806335449, 1.183483600616455, 1.2765308618545532, 1.0, 1.0, 0.07878655940294266, 0.12062769383192062, 0.12157806009054184, 1.0, 1.0, 0.25211700797080994
10, 31, 15, oneMovement, first_last, 1.7501848936080933, 1.986343502998352, 0.444593220949173, 0.3790165185928345, 0.27412891387939453, 0.7054054141044617, 0.6060671806335449, 1.183483600616455, 1.2765308618545532, 1.0, 1.0, 0.07878655940294266, 0.12051665037870407, 0.12219273298978806, 1.0, 1.0, 0.25341975688934326
10, 31, 11, oneMovement, new, 1.7501848936080933, 1.986343502998352, 0.444593220949173, 0.3790165185928345, 0.27412891387939453, 0.7054054141044617, 0.6060671806335449, 1.183483600616455, 1.2765308618545532, 1.0, 1.0, 0.07878655940294266, 4.47449254989624, 4.362302780151367, 1.0, 1.0, 0.07878655940294266
11, 37, 32, 83Perc, all, 1.7192357778549194, 1.991105318069458, 0.4569809138774872, 0.3821276128292084, 0.2882934510707855, 0.6850113868713379, 0.44063037633895874, 0.15343023836612701, 0.5549617409706116, 0.9835147261619568, 0.8399366140365601, 0.5295677781105042, 0.16029496490955353, 0.339581698179245, 0.9828102588653564, 0.9194928407669067, 0.5042908191680908
11, 37, 48, 83Perc, first, 1.7192357778549194, 1.991105318069458, 0.4569809138774872, 0.3821276128292084, 0.2882934510707855, 0.6850113868713379, 0.44063037633895874, 0.15343023836612701, 0.5549617409706116, 0.9835147261619568, 0.8399366140365601, 0.5295677781105042, 0.13788649439811707, 0.34727951884269714, 0.9854873418807983, 0.916006326675415, 0.4991418421268463
11, 37, 30, 83Perc, last, 1.7192357778549194, 1.991105318069458, 0.4569809138774872, 0.3821276128292084, 0.2882934510707855, 0.6850113868713379, 0.44063037633895874, 0.15343023836612701, 0.5549617409706116, 0.9835147261619568, 0.8399366140365601, 0.5295677781105042, 0.16444745659828186, 0.3251221776008606, 0.9821057319641113, 0.919175922870636, 0.5038227438926697
11, 37, 53, 83Perc, first_last, 1.7192357778549194, 1.991105318069458, 0.4569809138774872, 0.3821276128292084, 0.2882934510707855, 0.6850113868713379, 0.44063037633895874, 0.15343023836612701, 0.5549617409706116, 0.9835147261619568, 0.8399366140365601, 0.5295677781105042, 0.13059520721435547, 0.33606410026550293, 0.9874951839447021, 0.9141045808792114, 0.5276954174041748
11, 37, 11, 83Perc, new, 1.7192357778549194, 1.991105318069458, 0.4569809138774872, 0.3821276128292084, 0.2882934510707855, 0.6850113868713379, 0.44063037633895874, 0.15343023836612701, 0.5549617409706116, 0.9835147261619568, 0.8399366140365601, 0.5295677781105042, 2.8645753860473633, 2.869542360305786, 0.07848110049962997, 0.07480189949274063, 0.06818536669015884
11, 37, 40, 60Perc, all, 1.7192357778549194, 1.991105318069458, 0.4569809138774872, 0.3821276128292084, 0.2882934510707855, 0.6411980986595154, 0.534700334072113, 0.1565052717924118, 0.4977506697177887, 0.9869861602783203, 0.8714398741722107, 0.4908517301082611, 0.13695496320724487, 0.3369365334510803, 0.9859309792518616, 0.9149525165557861, 0.495110422372818
11, 37, 35, 60Perc, first, 1.7192357778549194, 1.991105318069458, 0.4569809138774872, 0.3821276128292084, 0.2882934510707855, 0.6411980986595154, 0.534700334072113, 0.1565052717924118, 0.4977506697177887, 0.9869861602783203, 0.8714398741722107, 0.4908517301082611, 0.13509653508663177, 0.2920510470867157, 0.9872499704360962, 0.9331487417221069, 0.5091482400894165
11, 37, 43, 60Perc, last, 1.7192357778549194, 1.991105318069458, 0.4569809138774872, 0.3821276128292084, 0.2882934510707855, 0.6411980986595154, 0.534700334072113, 0.1565052717924118, 0.4977506697177887, 0.9869861602783203, 0.8714398741722107, 0.4908517301082611, 0.12920083105564117, 0.28983771800994873, 0.9870300889015198, 0.9260284900665283, 0.5120662450790405
11, 37, 31, 60Perc, first_last, 1.7192357778549194, 1.991105318069458, 0.4569809138774872, 0.3821276128292084, 0.2882934510707855, 0.6411980986595154, 0.534700334072113, 0.1565052717924118, 0.4977506697177887, 0.9869861602783203, 0.8714398741722107, 0.4908517301082611, 0.14255987107753754, 0.30492764711380005, 0.9871619939804077, 0.9276107549667358, 0.5071766376495361
11, 37, 11, 60Perc, new, 1.7192357778549194, 1.991105318069458, 0.4569809138774872, 0.3821276128292084, 0.2882934510707855, 0.6411980986595154, 0.534700334072113, 0.1565052717924118, 0.4977506697177887, 0.9869861602783203, 0.8714398741722107, 0.4908517301082611, 2.87339186668396, 2.8688788414001465, 0.07654429227113724, 0.0771360769867897, 0.07831230014562607
11, 37, 59, 30Perc, all, 1.7192357778549194, 1.991105318069458, 0.4569809138774872, 0.3821276128292084, 0.2882934510707855, 0.6378574967384338, 0.5860051512718201, 0.4358843266963959, 13.917184829711914, 0.9690133333206177, 0.10347551107406616, 0.14836923778057098, 0.08371098339557648, 0.11249811947345734, 0.9942942261695862, 0.9810426831245422, 0.45791658759117126
11, 37, 48, 30Perc, first, 1.7192357778549194, 1.991105318069458, 0.4569809138774872, 0.3821276128292084, 0.2882934510707855, 0.6378574967384338, 0.5860051512718201, 0.4358843266963959, 13.917184829711914, 0.9690133333206177, 0.10347551107406616, 0.14836923778057098, 0.09280207753181458, 0.133617103099823, 0.9949086904525757, 0.9826224446296692, 0.4557817876338959
11, 37, 45, 30Perc, last, 1.7192357778549194, 1.991105318069458, 0.4569809138774872, 0.3821276128292084, 0.2882934510707855, 0.6378574967384338, 0.5860051512718201, 0.4358843266963959, 13.917184829711914, 0.9690133333206177, 0.10347551107406616, 0.14836923778057098, 0.08874184638261795, 0.13869188725948334, 0.9967520833015442, 0.9747235178947449, 0.45463529229164124
11, 37, 51, 30Perc, first_last, 1.7192357778549194, 1.991105318069458, 0.4569809138774872, 0.3821276128292084, 0.2882934510707855, 0.6378574967384338, 0.5860051512718201, 0.4358843266963959, 13.917184829711914, 0.9690133333206177, 0.10347551107406616, 0.14836923778057098, 0.08571333438158035, 0.11310262978076935, 0.9957864880561829, 0.9865719079971313, 0.4538446366786957
11, 37, 11, 30Perc, new, 1.7192357778549194, 1.991105318069458, 0.4569809138774872, 0.3821276128292084, 0.2882934510707855, 0.6378574967384338, 0.5860051512718201, 0.4358843266963959, 13.917184829711914, 0.9690133333206177, 0.10347551107406616, 0.14836923778057098, 2.899477958679199, 2.89404034614563, 0.08488412946462631, 0.09083728492259979, 0.07187191396951675
11, 37, 39, 16Perc, all, 1.7192357778549194, 1.991105318069458, 0.4569809138774872, 0.3821276128292084, 0.2882934510707855, 0.6228204369544983, 0.5965303182601929, 0.47005903720855713, 20.844924926757812, 0.9913324117660522, 0.05198776721954346, 0.09021168202161789, 0.10108162462711334, 0.1663164347410202, 0.9974507093429565, 0.9740061163902283, 0.4555148780345917
11, 37, 53, 16Perc, first, 1.7192357778549194, 1.991105318069458, 0.4569809138774872, 0.3821276128292084, 0.2882934510707855, 0.6228204369544983, 0.5965303182601929, 0.47005903720855713, 20.844924926757812, 0.9913324117660522, 0.05198776721954346, 0.09021168202161789, 0.08325906842947006, 0.13485516607761383, 0.9991502165794373, 0.9785932898521423, 0.4363202154636383
11, 37, 48, 16Perc, last, 1.7192357778549194, 1.991105318069458, 0.4569809138774872, 0.3821276128292084, 0.2882934510707855, 0.6228204369544983, 0.5965303182601929, 0.47005903720855713, 20.844924926757812, 0.9913324117660522, 0.05198776721954346, 0.09021168202161789, 0.08654779940843582, 0.1408100128173828, 0.9991502165794373, 0.9785932898521423, 0.4457106590270996
11, 37, 55, 16Perc, first_last, 1.7192357778549194, 1.991105318069458, 0.4569809138774872, 0.3821276128292084, 0.2882934510707855, 0.6228204369544983, 0.5965303182601929, 0.47005903720855713, 20.844924926757812, 0.9913324117660522, 0.05198776721954346, 0.09021168202161789, 0.08043563365936279, 0.12515918910503387, 0.9993202090263367, 0.9740061163902283, 0.4522680342197418
11, 37, 12, 16Perc, new, 1.7192357778549194, 1.991105318069458, 0.4569809138774872, 0.3821276128292084, 0.2882934510707855, 0.6228204369544983, 0.5965303182601929, 0.47005903720855713, 20.844924926757812, 0.9913324117660522, 0.05198776721954346, 0.09021168202161789, 2.916325092315674, 2.92051362991333, 0.08140720427036285, 0.10397553443908691, 0.07582364976406097
11, 37, 56, fiveMovements, all, 1.7192357778549194, 1.991105318069458, 0.4569809138774872, 0.3821276128292084, 0.2882934510707855, 0.6698982119560242, 0.5934866666793823, 0.5849872827529907, 8.08906364440918, 1.0, 0.26570048928260803, 0.11186086386442184, 0.10237354040145874, 0.18019725382328033, 0.9994612336158752, 0.9758453965187073, 0.20607616007328033
11, 37, 53, fiveMovements, first, 1.7192357778549194, 1.991105318069458, 0.4569809138774872, 0.3821276128292084, 0.2882934510707855, 0.6698982119560242, 0.5934866666793823, 0.5849872827529907, 8.08906364440918, 1.0, 0.26570048928260803, 0.11186086386442184, 0.10545013844966888, 0.19550059735774994, 0.9978448152542114, 0.966183602809906, 0.2085154950618744
11, 37, 60, fiveMovements, last, 1.7192357778549194, 1.991105318069458, 0.4569809138774872, 0.3821276128292084, 0.2882934510707855, 0.6698982119560242, 0.5934866666793823, 0.5849872827529907, 8.08906364440918, 1.0, 0.26570048928260803, 0.11186086386442184, 0.10058348625898361, 0.15536990761756897, 0.9994612336158752, 0.9710144996643066, 0.20658303797245026
11, 37, 46, fiveMovements, first_last, 1.7192357778549194, 1.991105318069458, 0.4569809138774872, 0.3821276128292084, 0.2882934510707855, 0.6698982119560242, 0.5934866666793823, 0.5849872827529907, 8.08906364440918, 1.0, 0.26570048928260803, 0.11186086386442184, 0.10797113925218582, 0.1805397868156433, 1.0, 0.966183602809906, 0.2061711996793747
11, 37, 14, fiveMovements, new, 1.7192357778549194, 1.991105318069458, 0.4569809138774872, 0.3821276128292084, 0.2882934510707855, 0.6698982119560242, 0.5934866666793823, 0.5849872827529907, 8.08906364440918, 1.0, 0.26570048928260803, 0.11186086386442184, 2.679741382598877, 2.646756887435913, 0.2149784415960312, 0.21739129722118378, 0.07067731022834778
11, 37, 19, oneMovement, all, 1.7192357778549194, 1.991105318069458, 0.4569809138774872, 0.3821276128292084, 0.2882934510707855, 0.7675675749778748, 0.594001054763794, 1.1701412200927734, 1.1644071340560913, 1.0, 1.0, 0.07878655940294266, 0.12332421541213989, 0.1235058531165123, 1.0, 1.0, 0.11796271800994873
11, 37, 18, oneMovement, first, 1.7192357778549194, 1.991105318069458, 0.4569809138774872, 0.3821276128292084, 0.2882934510707855, 0.7675675749778748, 0.594001054763794, 1.1701412200927734, 1.1644071340560913, 1.0, 1.0, 0.07878655940294266, 0.12314829975366592, 0.12335537374019623, 1.0, 1.0, 0.13849684596061707
11, 37, 18, oneMovement, last, 1.7192357778549194, 1.991105318069458, 0.4569809138774872, 0.3821276128292084, 0.2882934510707855, 0.7675675749778748, 0.594001054763794, 1.1701412200927734, 1.1644071340560913, 1.0, 1.0, 0.07878655940294266, 0.12326829135417938, 0.12347479164600372, 1.0, 1.0, 0.13908620178699493
11, 37, 18, oneMovement, first_last, 1.7192357778549194, 1.991105318069458, 0.4569809138774872, 0.3821276128292084, 0.2882934510707855, 0.7675675749778748, 0.594001054763794, 1.1701412200927734, 1.1644071340560913, 1.0, 1.0, 0.07878655940294266, 0.12311805039644241, 0.12333215028047562, 1.0, 1.0, 0.13778342306613922
11, 37, 12, oneMovement, new, 1.7192357778549194, 1.991105318069458, 0.4569809138774872, 0.3821276128292084, 0.2882934510707855, 0.7675675749778748, 0.594001054763794, 1.1701412200927734, 1.1644071340560913, 1.0, 1.0, 0.07878655940294266, 4.364545822143555, 4.2569756507873535, 1.0, 1.0, 0.07878655940294266
