subject,train_epochs,retraining_epochs,retraining_samples,retraining_method,train_loss,val_loss,train_accuracy,val_accuracy,test_accuracy,pre_retraining_train_accuracy,pre_retraining_test_accuracy,new_train_loss,new_val_loss,new_train_accuracy,new_val_accuracy,new_test_accuracy,r_train_loss,r_val_loss,r_train_accuracy,r_val_accuracy,r_test_accuracy
1, 33, 45, 83Perc, all, 0.7934414148330688, 1.1827237606048584, 0.7687520384788513, 0.6567479968070984, 0.5314307808876038, 0.8396055698394775, 0.4941319227218628, 0.12309447675943375, 0.36716049909591675, 0.9880867004394531, 0.9065862894058228, 0.5522055625915527, 0.09291651844978333, 0.15676508843898773, 0.993158221244812, 0.9715884923934937, 0.5651558041572571
1, 33, 38, 83Perc, first, 0.7934414148330688, 1.1827237606048584, 0.7687520384788513, 0.6567479968070984, 0.5314307808876038, 0.8396055698394775, 0.4941319227218628, 0.12309447675943375, 0.36716049909591675, 0.9880867004394531, 0.9065862894058228, 0.5522055625915527, 0.09870405495166779, 0.1743689924478531, 0.9922013282775879, 0.961687445640564, 0.5580736398696899
1, 33, 34, 83Perc, last, 0.7934414148330688, 1.1827237606048584, 0.7687520384788513, 0.6567479968070984, 0.5314307808876038, 0.8396055698394775, 0.4941319227218628, 0.12309447675943375, 0.36716049909591675, 0.9880867004394531, 0.9065862894058228, 0.5522055625915527, 0.0986943244934082, 0.20156604051589966, 0.9930146932601929, 0.9556607604026794, 0.5554431676864624
1, 33, 21, 83Perc, first_last, 0.7934414148330688, 1.1827237606048584, 0.7687520384788513, 0.6567479968070984, 0.5314307808876038, 0.8396055698394775, 0.4941319227218628, 0.12309447675943375, 0.36716049909591675, 0.9880867004394531, 0.9065862894058228, 0.5522055625915527, 0.1248672679066658, 0.2062254250049591, 0.9917707443237305, 0.9599655866622925, 0.5572642683982849
1, 33, 11, 83Perc, new, 0.7934414148330688, 1.1827237606048584, 0.7687520384788513, 0.6567479968070984, 0.5314307808876038, 0.8396055698394775, 0.4941319227218628, 0.12309447675943375, 0.36716049909591675, 0.9880867004394531, 0.9065862894058228, 0.5522055625915527, 2.535797595977783, 2.5338919162750244, 0.09913401305675507, 0.10116229206323624, 0.08640226721763611
1, 33, 40, 60Perc, all, 0.7934414148330688, 1.1827237606048584, 0.7687520384788513, 0.6567479968070984, 0.5314307808876038, 0.7497422695159912, 0.6464003324508667, 0.07981593161821365, 0.26202237606048584, 0.9994573593139648, 0.9348887801170349, 0.5006675720214844, 0.10061869770288467, 0.22486838698387146, 0.9918606281280518, 0.9500814080238342, 0.5613638758659363
1, 33, 25, 60Perc, first, 0.7934414148330688, 1.1827237606048584, 0.7687520384788513, 0.6567479968070984, 0.5314307808876038, 0.7497422695159912, 0.6464003324508667, 0.07981593161821365, 0.26202237606048584, 0.9994573593139648, 0.9348887801170349, 0.5006675720214844, 0.114197738468647, 0.23484346270561218, 0.9942722916603088, 0.9484536051750183, 0.5861148238182068
1, 33, 42, 60Perc, last, 0.7934414148330688, 1.1827237606048584, 0.7687520384788513, 0.6567479968070984, 0.5314307808876038, 0.7497422695159912, 0.6464003324508667, 0.07981593161821365, 0.26202237606048584, 0.9994573593139648, 0.9348887801170349, 0.5006675720214844, 0.0877017080783844, 0.22824017703533173, 0.9946942925453186, 0.9451980590820312, 0.5783095359802246
1, 33, 34, 60Perc, first_last, 0.7934414148330688, 1.1827237606048584, 0.7687520384788513, 0.6567479968070984, 0.5314307808876038, 0.7497422695159912, 0.6464003324508667, 0.07981593161821365, 0.26202237606048584, 0.9994573593139648, 0.9348887801170349, 0.5006675720214844, 0.09275869280099869, 0.2097361832857132, 0.9955384135246277, 0.9495387673377991, 0.565574586391449
1, 33, 11, 60Perc, new, 0.7934414148330688, 1.1827237606048584, 0.7687520384788513, 0.6567479968070984, 0.5314307808876038, 0.7497422695159912, 0.6464003324508667, 0.07981593161821365, 0.26202237606048584, 0.9994573593139648, 0.9348887801170349, 0.5006675720214844, 2.543309211730957, 2.5369021892547607, 0.10315929353237152, 0.10689093917608261, 0.09150662273168564
1, 33, 26, 30Perc, all, 0.7934414148330688, 1.1827237606048584, 0.7687520384788513, 0.6567479968070984, 0.5314307808876038, 0.7623342871665955, 0.6968466639518738, 0.42443063855171204, 7.785481929779053, 0.9766936302185059, 0.2768729627132416, 0.2734127938747406, 0.12458258122205734, 0.22425483167171478, 0.995773434638977, 0.9652551412582397, 0.5846340656280518
1, 33, 23, 30Perc, first, 0.7934414148330688, 1.1827237606048584, 0.7687520384788513, 0.6567479968070984, 0.5314307808876038, 0.7623342871665955, 0.6968466639518738, 0.42443063855171204, 7.785481929779053, 0.9766936302185059, 0.2768729627132416, 0.2734127938747406, 0.123862124979496, 0.24846017360687256, 0.9964979887008667, 0.9630836248397827, 0.5907508730888367
1, 33, 32, 30Perc, last, 0.7934414148330688, 1.1827237606048584, 0.7687520384788513, 0.6567479968070984, 0.5314307808876038, 0.7623342871665955, 0.6968466639518738, 0.42443063855171204, 7.785481929779053, 0.9766936302185059, 0.2768729627132416, 0.2734127938747406, 0.10656861215829849, 0.20602384209632874, 0.9983093738555908, 0.9674267172813416, 0.5744041204452515
1, 33, 45, 30Perc, first_last, 0.7934414148330688, 1.1827237606048584, 0.7687520384788513, 0.6567479968070984, 0.5314307808876038, 0.7623342871665955, 0.6968466639518738, 0.42443063855171204, 7.785481929779053, 0.9766936302185059, 0.2768729627132416, 0.2734127938747406, 0.08324936032295227, 0.17750431597232819, 0.9992754459381104, 0.9674267172813416, 0.562012255191803
1, 33, 11, 30Perc, new, 0.7934414148330688, 1.1827237606048584, 0.7687520384788513, 0.6567479968070984, 0.5314307808876038, 0.7623342871665955, 0.6968466639518738, 0.42443063855171204, 7.785481929779053, 0.9766936302185059, 0.2768729627132416, 0.2734127938747406, 2.577651262283325, 2.5726394653320312, 0.10457674413919449, 0.08794788271188736, 0.09734233468770981
1, 33, 37, 16Perc, all, 0.7934414148330688, 1.1827237606048584, 0.7687520384788513, 0.6567479968070984, 0.5314307808876038, 0.7400087118148804, 0.7235379219055176, 0.5837309956550598, 12.328470230102539, 0.9821385741233826, 0.12581345438957214, 0.18703845143318176, 0.15075518190860748, 0.1965019702911377, 0.992276132106781, 0.9761388301849365, 0.5003819465637207
1, 33, 29, 16Perc, first, 0.7934414148330688, 1.1827237606048584, 0.7687520384788513, 0.6567479968070984, 0.5314307808876038, 0.7400087118148804, 0.7235379219055176, 0.5837309956550598, 12.328470230102539, 0.9821385741233826, 0.12581345438957214, 0.18703845143318176, 0.12949885427951813, 0.15950925648212433, 0.9978276491165161, 0.9848155975341797, 0.5335710048675537
1, 33, 33, 16Perc, last, 0.7934414148330688, 1.1827237606048584, 0.7687520384788513, 0.6567479968070984, 0.5314307808876038, 0.7400087118148804, 0.7235379219055176, 0.5837309956550598, 12.328470230102539, 0.9821385741233826, 0.12581345438957214, 0.18703845143318176, 0.12136989086866379, 0.16654334962368011, 0.9985517859458923, 0.9848155975341797, 0.5236397385597229
1, 33, 34, 16Perc, first_last, 0.7934414148330688, 1.1827237606048584, 0.7687520384788513, 0.6567479968070984, 0.5314307808876038, 0.7400087118148804, 0.7235379219055176, 0.5837309956550598, 12.328470230102539, 0.9821385741233826, 0.12581345438957214, 0.18703845143318176, 0.11954715847969055, 0.1574716866016388, 0.9985517859458923, 0.9913232326507568, 0.530005931854248
1, 33, 12, 16Perc, new, 0.7934414148330688, 1.1827237606048584, 0.7687520384788513, 0.6567479968070984, 0.5314307808876038, 0.7400087118148804, 0.7235379219055176, 0.5837309956550598, 12.328470230102539, 0.9821385741233826, 0.12581345438957214, 0.18703845143318176, 2.6016030311584473, 2.5965352058410645, 0.10934105515480042, 0.11930585652589798, 0.09392241388559341
1, 33, 11, fiveMovements, all, 0.7934414148330688, 1.1827237606048584, 0.7687520384788513, 0.6567479968070984, 0.5314307808876038, 0.7862173318862915, 0.7011693716049194, 0.5857791304588318, 3.8043885231018066, 1.0, 0.24623115360736847, 0.2471400797367096, 0.14913499355316162, 0.8861933350563049, 0.9977641105651855, 0.8140703439712524, 0.4955088496208191
1, 33, 50, fiveMovements, first, 0.7934414148330688, 1.1827237606048584, 0.7687520384788513, 0.6567479968070984, 0.5314307808876038, 0.7862173318862915, 0.7011693716049194, 0.5857791304588318, 3.8043885231018066, 1.0, 0.24623115360736847, 0.2471400797367096, 0.1185169592499733, 0.135565847158432, 0.9994410276412964, 0.9949748516082764, 0.29802557826042175
1, 33, 11, fiveMovements, last, 0.7934414148330688, 1.1827237606048584, 0.7687520384788513, 0.6567479968070984, 0.5314307808876038, 0.7862173318862915, 0.7011693716049194, 0.5857791304588318, 3.8043885231018066, 1.0, 0.24623115360736847, 0.2471400797367096, 0.15001408755779266, 0.7822088003158569, 0.9983230829238892, 0.8341708779335022, 0.5111007690429688
1, 33, 11, fiveMovements, first_last, 0.7934414148330688, 1.1827237606048584, 0.7687520384788513, 0.6567479968070984, 0.5314307808876038, 0.7862173318862915, 0.7011693716049194, 0.5857791304588318, 3.8043885231018066, 1.0, 0.24623115360736847, 0.2471400797367096, 0.1496204137802124, 0.8981641530990601, 0.9977641105651855, 0.8241205811500549, 0.515888512134552
1, 33, 17, fiveMovements, new, 0.7934414148330688, 1.1827237606048584, 0.7687520384788513, 0.6567479968070984, 0.5314307808876038, 0.7862173318862915, 0.7011693716049194, 0.5857791304588318, 3.8043885231018066, 1.0, 0.24623115360736847, 0.2471400797367096, 2.356337785720825, 2.3281493186950684, 0.24259363114833832, 0.2613065242767334, 0.09791543334722519
1, 33, 15, oneMovement, all, 0.7934414148330688, 1.1827237606048584, 0.7687520384788513, 0.6567479968070984, 0.5314307808876038, 0.6734693646430969, 0.706865131855011, 1.0961605310440063, 1.087151050567627, 1.0, 1.0, 0.0969342291355133, 0.13937291502952576, 0.1393829882144928, 1.0, 1.0, 0.15706229209899902
1, 33, 15, oneMovement, first, 0.7934414148330688, 1.1827237606048584, 0.7687520384788513, 0.6567479968070984, 0.5314307808876038, 0.6734693646430969, 0.706865131855011, 1.0961605310440063, 1.087151050567627, 1.0, 1.0, 0.0969342291355133, 0.13920316100120544, 0.13939960300922394, 1.0, 1.0, 0.1519738733768463
1, 33, 15, oneMovement, last, 0.7934414148330688, 1.1827237606048584, 0.7687520384788513, 0.6567479968070984, 0.5314307808876038, 0.6734693646430969, 0.706865131855011, 1.0961605310440063, 1.087151050567627, 1.0, 1.0, 0.0969342291355133, 0.13928289711475372, 0.13933292031288147, 1.0, 1.0, 0.14667345583438873
1, 33, 15, oneMovement, first_last, 0.7934414148330688, 1.1827237606048584, 0.7687520384788513, 0.6567479968070984, 0.5314307808876038, 0.6734693646430969, 0.706865131855011, 1.0961605310440063, 1.087151050567627, 1.0, 1.0, 0.0969342291355133, 0.1392287015914917, 0.13939586281776428, 1.0, 1.0, 0.15367001295089722
1, 33, 18, oneMovement, new, 0.7934414148330688, 1.1827237606048584, 0.7687520384788513, 0.6567479968070984, 0.5314307808876038, 0.6734693646430969, 0.706865131855011, 1.0961605310440063, 1.087151050567627, 1.0, 1.0, 0.0969342291355133, 3.3713879585266113, 3.3085360527038574, 1.0, 1.0, 0.0969342291355133
2, 33, 36, 83Perc, all, 0.8120468258857727, 1.1859891414642334, 0.7631832361221313, 0.6513203382492065, 0.5253771543502808, 0.8424044251441956, 0.47875353693962097, 0.09939659386873245, 0.24138464033603668, 0.9954069256782532, 0.9461902976036072, 0.5337919592857361, 0.10869166254997253, 0.17311938107013702, 0.9924405813217163, 0.9668532013893127, 0.5657628774642944
2, 33, 34, 83Perc, first, 0.8120468258857727, 1.1859891414642334, 0.7631832361221313, 0.6513203382492065, 0.5253771543502808, 0.8424044251441956, 0.47875353693962097, 0.09939659386873245, 0.24138464033603668, 0.9954069256782532, 0.9461902976036072, 0.5337919592857361, 0.10789832472801208, 0.20947375893592834, 0.9907659888267517, 0.9513559937477112, 0.5435046553611755
2, 33, 40, 83Perc, last, 0.8120468258857727, 1.1859891414642334, 0.7631832361221313, 0.6513203382492065, 0.5253771543502808, 0.8424044251441956, 0.47875353693962097, 0.09939659386873245, 0.24138464033603668, 0.9954069256782532, 0.9461902976036072, 0.5337919592857361, 0.09994158893823624, 0.28634658455848694, 0.9915793538093567, 0.9393026232719421, 0.5526102781295776
2, 33, 38, 83Perc, first_last, 0.8120468258857727, 1.1859891414642334, 0.7631832361221313, 0.6513203382492065, 0.5253771543502808, 0.8424044251441956, 0.47875353693962097, 0.09939659386873245, 0.24138464033603668, 0.9954069256782532, 0.9461902976036072, 0.5337919592857361, 0.10249454528093338, 0.18492470681667328, 0.9916272163391113, 0.9582436680793762, 0.5641440749168396
2, 33, 12, 83Perc, new, 0.8120468258857727, 1.1859891414642334, 0.7631832361221313, 0.6513203382492065, 0.5253771543502808, 0.8424044251441956, 0.47875353693962097, 0.09939659386873245, 0.24138464033603668, 0.9954069256782532, 0.9461902976036072, 0.5337919592857361, 2.5337533950805664, 2.5282039642333984, 0.10233960300683975, 0.10073181241750717, 0.09834074974060059
2, 33, 36, 60Perc, all, 0.8120468258857727, 1.1859891414642334, 0.7631832361221313, 0.6513203382492065, 0.5253771543502808, 0.7515871524810791, 0.6391085386276245, 0.33457741141319275, 7.9013190269470215, 0.974195122718811, 0.24742268025875092, 0.26270925998687744, 0.1008932814002037, 0.172526553273201, 0.9937899708747864, 0.9652740359306335, 0.5529423952102661
2, 33, 43, 60Perc, first, 0.8120468258857727, 1.1859891414642334, 0.7631832361221313, 0.6513203382492065, 0.5253771543502808, 0.7515871524810791, 0.6391085386276245, 0.33457741141319275, 7.9013190269470215, 0.974195122718811, 0.24742268025875092, 0.26270925998687744, 0.0925586074590683, 0.15976127982139587, 0.9932473301887512, 0.9685295820236206, 0.5719420909881592
2, 33, 29, 60Perc, last, 0.8120468258857727, 1.1859891414642334, 0.7631832361221313, 0.6513203382492065, 0.5253771543502808, 0.7515871524810791, 0.6391085386276245, 0.33457741141319275, 7.9013190269470215, 0.974195122718811, 0.24742268025875092, 0.26270925998687744, 0.11087953299283981, 0.2058536261320114, 0.9933075904846191, 0.9571350812911987, 0.5628016591072083
2, 33, 49, 60Perc, first_last, 0.8120468258857727, 1.1859891414642334, 0.7631832361221313, 0.6513203382492065, 0.5253771543502808, 0.7515871524810791, 0.6391085386276245, 0.33457741141319275, 7.9013190269470215, 0.974195122718811, 0.24742268025875092, 0.26270925998687744, 0.08720917999744415, 0.18981251120567322, 0.9932473301887512, 0.9576777219772339, 0.5521208047866821
2, 33, 11, 60Perc, new, 0.8120468258857727, 1.1859891414642334, 0.7631832361221313, 0.6513203382492065, 0.5253771543502808, 0.7515871524810791, 0.6391085386276245, 0.33457741141319275, 7.9013190269470215, 0.974195122718811, 0.24742268025875092, 0.26270925998687744, 2.5450870990753174, 2.5376970767974854, 0.10448571294546127, 0.09495387971401215, 0.09150662273168564
2, 33, 42, 30Perc, all, 0.8120468258857727, 1.1859891414642334, 0.7631832361221313, 0.6513203382492065, 0.5253771543502808, 0.7632036805152893, 0.6997995972633362, 0.43611258268356323, 8.285807609558105, 0.974399209022522, 0.24538545310497284, 0.2795823812484741, 0.0986030250787735, 0.16719192266464233, 0.9972225427627563, 0.9728555679321289, 0.55800461769104
2, 33, 34, 30Perc, first, 0.8120468258857727, 1.1859891414642334, 0.7631832361221313, 0.6513203382492065, 0.5253771543502808, 0.7632036805152893, 0.6997995972633362, 0.43611258268356323, 8.285807609558105, 0.974399209022522, 0.24538545310497284, 0.2795823812484741, 0.11214669048786163, 0.19641472399234772, 0.9966187477111816, 0.9706840515136719, 0.5586901307106018
2, 33, 36, 30Perc, last, 0.8120468258857727, 1.1859891414642334, 0.7631832361221313, 0.6513203382492065, 0.5253771543502808, 0.7632036805152893, 0.6997995972633362, 0.43611258268356323, 8.285807609558105, 0.974399209022522, 0.24538545310497284, 0.2795823812484741, 0.10483881086111069, 0.16375839710235596, 0.9971017837524414, 0.9717698097229004, 0.5641214847564697
2, 33, 25, 30Perc, first_last, 0.8120468258857727, 1.1859891414642334, 0.7631832361221313, 0.6513203382492065, 0.5253771543502808, 0.7632036805152893, 0.6997995972633362, 0.43611258268356323, 8.285807609558105, 0.974399209022522, 0.24538545310497284, 0.2795823812484741, 0.12203928828239441, 0.18957538902759552, 0.997826337814331, 0.9739413857460022, 0.5717675685882568
2, 33, 11, 30Perc, new, 0.8120468258857727, 1.1859891414642334, 0.7631832361221313, 0.6513203382492065, 0.5253771543502808, 0.7632036805152893, 0.6997995972633362, 0.43611258268356323, 8.285807609558105, 0.974399209022522, 0.24538545310497284, 0.2795823812484741, 2.5792877674102783, 2.572113513946533, 0.10348991304636002, 0.10097719728946686, 0.09871335327625275
2, 33, 39, 16Perc, all, 0.8120468258857727, 1.1859891414642334, 0.7631832361221313, 0.6513203382492065, 0.5253771543502808, 0.7712858319282532, 0.718784511089325, 0.4602735936641693, 9.540824890136719, 0.9956552982330322, 0.16268980503082275, 0.22396230697631836, 0.12292409688234329, 0.1545451432466507, 0.9971035718917847, 0.9826464056968689, 0.514472484588623
2, 33, 36, 16Perc, first, 0.8120468258857727, 1.1859891414642334, 0.7631832361221313, 0.6513203382492065, 0.5253771543502808, 0.7712858319282532, 0.718784511089325, 0.4602735936641693, 9.540824890136719, 0.9956552982330322, 0.16268980503082275, 0.22396230697631836, 0.12022131681442261, 0.161024808883667, 0.9985517859458923, 0.9826464056968689, 0.5084033608436584
2, 33, 40, 16Perc, last, 0.8120468258857727, 1.1859891414642334, 0.7631832361221313, 0.6513203382492065, 0.5253771543502808, 0.7712858319282532, 0.718784511089325, 0.4602735936641693, 9.540824890136719, 0.9956552982330322, 0.16268980503082275, 0.22396230697631836, 0.11908121407032013, 0.14523106813430786, 0.9987931251525879, 0.9848155975341797, 0.49511927366256714
2, 33, 40, 16Perc, first_last, 0.8120468258857727, 1.1859891414642334, 0.7631832361221313, 0.6513203382492065, 0.5253771543502808, 0.7712858319282532, 0.718784511089325, 0.4602735936641693, 9.540824890136719, 0.9956552982330322, 0.16268980503082275, 0.22396230697631836, 0.11910466849803925, 0.15909889340400696, 0.9980690479278564, 0.9739696383476257, 0.5007639527320862
2, 33, 12, 16Perc, new, 0.8120468258857727, 1.1859891414642334, 0.7631832361221313, 0.6513203382492065, 0.5253771543502808, 0.7712858319282532, 0.718784511089325, 0.4602735936641693, 9.540824890136719, 0.9956552982330322, 0.16268980503082275, 0.22396230697631836, 2.6043717861175537, 2.6022520065307617, 0.1153753325343132, 0.0954446867108345, 0.09761480242013931
2, 33, 11, fiveMovements, all, 0.8120468258857727, 1.1859891414642334, 0.7631832361221313, 0.6513203382492065, 0.5253771543502808, 0.8239436745643616, 0.6918057799339294, 0.5940968990325928, 4.615413188934326, 1.0, 0.2512562870979309, 0.2333276867866516, 0.15428496897220612, 1.060612678527832, 0.9960871934890747, 0.8090452551841736, 0.46919751167297363
2, 33, 11, fiveMovements, first, 0.8120468258857727, 1.1859891414642334, 0.7631832361221313, 0.6513203382492065, 0.5253771543502808, 0.8239436745643616, 0.6918057799339294, 0.5940968990325928, 4.615413188934326, 1.0, 0.2512562870979309, 0.2333276867866516, 0.15472812950611115, 1.1121712923049927, 0.9949692487716675, 0.8090452551841736, 0.4866960346698761
2, 33, 11, fiveMovements, last, 0.8120468258857727, 1.1859891414642334, 0.7631832361221313, 0.6513203382492065, 0.5253771543502808, 0.8239436745643616, 0.6918057799339294, 0.5940968990325928, 4.615413188934326, 1.0, 0.2512562870979309, 0.2333276867866516, 0.14756274223327637, 1.001847743988037, 0.9994410276412964, 0.8140703439712524, 0.48584866523742676
2, 33, 11, fiveMovements, first_last, 0.8120468258857727, 1.1859891414642334, 0.7631832361221313, 0.6513203382492065, 0.5253771543502808, 0.8239436745643616, 0.6918057799339294, 0.5940968990325928, 4.615413188934326, 1.0, 0.2512562870979309, 0.2333276867866516, 0.15087677538394928, 1.0539734363555908, 0.9966461658477783, 0.8140703439712524, 0.4841538965702057
2, 33, 11, fiveMovements, new, 0.8120468258857727, 1.1859891414642334, 0.7631832361221313, 0.6513203382492065, 0.5253771543502808, 0.8239436745643616, 0.6918057799339294, 0.5940968990325928, 4.615413188934326, 1.0, 0.2512562870979309, 0.2333276867866516, 2.6489295959472656, 2.604114532470703, 0.2453884780406952, 0.23618090152740479, 0.09791543334722519
2, 33, 14, oneMovement, all, 0.8120468258857727, 1.1859891414642334, 0.7631832361221313, 0.6513203382492065, 0.5253771543502808, 0.7632653117179871, 0.7012254595756531, 1.1313369274139404, 1.12514066696167, 1.0, 1.0, 0.0969342291355133, 0.14087046682834625, 0.14150021970272064, 1.0, 1.0, 0.2807106673717499
2, 33, 14, oneMovement, first, 0.8120468258857727, 1.1859891414642334, 0.7631832361221313, 0.6513203382492065, 0.5253771543502808, 0.7632653117179871, 0.7012254595756531, 1.1313369274139404, 1.12514066696167, 1.0, 1.0, 0.0969342291355133, 0.14088943600654602, 0.14178955554962158, 1.0, 1.0, 0.2758342921733856
2, 33, 14, oneMovement, last, 0.8120468258857727, 1.1859891414642334, 0.7631832361221313, 0.6513203382492065, 0.5253771543502808, 0.7632653117179871, 0.7012254595756531, 1.1313369274139404, 1.12514066696167, 1.0, 1.0, 0.0969342291355133, 0.14077728986740112, 0.14154782891273499, 1.0, 1.0, 0.28198277950286865
2, 33, 14, oneMovement, first_last, 0.8120468258857727, 1.1859891414642334, 0.7631832361221313, 0.6513203382492065, 0.5253771543502808, 0.7632653117179871, 0.7012254595756531, 1.1313369274139404, 1.12514066696167, 1.0, 1.0, 0.0969342291355133, 0.1408882588148117, 0.14166121184825897, 1.0, 1.0, 0.2703218460083008
2, 33, 15, oneMovement, new, 0.8120468258857727, 1.1859891414642334, 0.7631832361221313, 0.6513203382492065, 0.5253771543502808, 0.7632653117179871, 0.7012254595756531, 1.1313369274139404, 1.12514066696167, 1.0, 1.0, 0.0969342291355133, 3.4778246879577637, 3.407151460647583, 1.0, 1.0, 0.0969342291355133
3, 26, 26, 83Perc, all, 0.8519535660743713, 1.1742225885391235, 0.7463569641113281, 0.6488952040672302, 0.5374459624290466, 0.7994746565818787, 0.46337515115737915, 0.08208993077278137, 0.3865814507007599, 0.998708188533783, 0.8889366984367371, 0.5380412936210632, 0.10859496891498566, 0.19784626364707947, 0.9931103587150574, 0.9625484347343445, 0.5566571950912476
3, 26, 28, 83Perc, first, 0.8519535660743713, 1.1742225885391235, 0.7463569641113281, 0.6488952040672302, 0.5374459624290466, 0.7994746565818787, 0.46337515115737915, 0.08208993077278137, 0.3865814507007599, 0.998708188533783, 0.8889366984367371, 0.5380412936210632, 0.10648835450410843, 0.22467505931854248, 0.9925362467765808, 0.9504950642585754, 0.5696074366569519
3, 26, 35, 83Perc, last, 0.8519535660743713, 1.1742225885391235, 0.7463569641113281, 0.6488952040672302, 0.5374459624290466, 0.7994746565818787, 0.46337515115737915, 0.08208993077278137, 0.3865814507007599, 0.998708188533783, 0.8889366984367371, 0.5380412936210632, 0.09695176035165787, 0.17683613300323486, 0.9926319122314453, 0.9664227366447449, 0.5576689839363098
3, 26, 46, 83Perc, first_last, 0.8519535660743713, 1.1742225885391235, 0.7463569641113281, 0.6488952040672302, 0.5374459624290466, 0.7994746565818787, 0.46337515115737915, 0.08208993077278137, 0.3865814507007599, 0.998708188533783, 0.8889366984367371, 0.5380412936210632, 0.09908042103052139, 0.21333198249340057, 0.9906703233718872, 0.9470512270927429, 0.55402672290802
3, 26, 11, 83Perc, new, 0.8519535660743713, 1.1742225885391235, 0.7463569641113281, 0.6488952040672302, 0.5374459624290466, 0.7994746565818787, 0.46337515115737915, 0.08208993077278137, 0.3865814507007599, 0.998708188533783, 0.8889366984367371, 0.5380412936210632, 2.5300683975219727, 2.525467872619629, 0.10152624547481537, 0.10804993659257889, 0.08640226721763611
3, 26, 36, 60Perc, all, 0.8519535660743713, 1.1742225885391235, 0.7463569641113281, 0.6488952040672302, 0.5374459624290466, 0.7478973269462585, 0.6073739528656006, 0.3392450213432312, 11.261591911315918, 0.9719642996788025, 0.21378187835216522, 0.2359042763710022, 0.09562873840332031, 0.16746561229228973, 0.994814932346344, 0.9663591980934143, 0.5613638758659363
3, 26, 42, 60Perc, first, 0.8519535660743713, 1.1742225885391235, 0.7463569641113281, 0.6488952040672302, 0.5374459624290466, 0.7478973269462585, 0.6073739528656006, 0.3392450213432312, 11.261591911315918, 0.9719642996788025, 0.21378187835216522, 0.2359042763710022, 0.08898289501667023, 0.2789625823497772, 0.9925841093063354, 0.9278350472450256, 0.5690664649009705
3, 26, 30, 60Perc, last, 0.8519535660743713, 1.1742225885391235, 0.7463569641113281, 0.6488952040672302, 0.5374459624290466, 0.7478973269462585, 0.6073739528656006, 0.3392450213432312, 11.261591911315918, 0.9719642996788025, 0.21378187835216522, 0.2359042763710022, 0.09451869875192642, 0.17222779989242554, 0.9969251155853271, 0.9631036520004272, 0.5765635967254639
3, 26, 39, 60Perc, first_last, 0.8519535660743713, 1.1742225885391235, 0.7463569641113281, 0.6488952040672302, 0.5374459624290466, 0.7478973269462585, 0.6073739528656006, 0.3392450213432312, 11.261591911315918, 0.9719642996788025, 0.21378187835216522, 0.2359042763710022, 0.08805914968252182, 0.16277506947517395, 0.9937899708747864, 0.9658166170120239, 0.5587963461875916
3, 26, 11, 60Perc, new, 0.8519535660743713, 1.1742225885391235, 0.7463569641113281, 0.6488952040672302, 0.5374459624290466, 0.7478973269462585, 0.6073739528656006, 0.3392450213432312, 11.261591911315918, 0.9719642996788025, 0.21378187835216522, 0.2359042763710022, 2.536738634109497, 2.5306015014648438, 0.10394308716058731, 0.09441128373146057, 0.09150662273168564
3, 26, 36, 30Perc, all, 0.8519535660743713, 1.1742225885391235, 0.7463569641113281, 0.6488952040672302, 0.5374459624290466, 0.7608128786087036, 0.6789706945419312, 0.4141727089881897, 6.471365928649902, 0.9750030040740967, 0.22149837017059326, 0.2652393877506256, 0.09370430558919907, 0.144265279173851, 0.9992754459381104, 0.9804560542106628, 0.5785699486732483
3, 26, 23, 30Perc, first, 0.8519535660743713, 1.1742225885391235, 0.7463569641113281, 0.6488952040672302, 0.5374459624290466, 0.7608128786087036, 0.6789706945419312, 0.4141727089881897, 6.471365928649902, 0.9750030040740967, 0.22149837017059326, 0.2652393877506256, 0.11983688175678253, 0.18470759689807892, 0.9977055788040161, 0.9739413857460022, 0.578306257724762
3, 26, 27, 30Perc, last, 0.8519535660743713, 1.1742225885391235, 0.7463569641113281, 0.6488952040672302, 0.5374459624290466, 0.7608128786087036, 0.6789706945419312, 0.4141727089881897, 6.471365928649902, 0.9750030040740967, 0.22149837017059326, 0.2652393877506256, 0.1112067848443985, 0.16932058334350586, 0.9980678558349609, 0.9771987199783325, 0.570501983165741
3, 26, 34, 30Perc, first_last, 0.8519535660743713, 1.1742225885391235, 0.7463569641113281, 0.6488952040672302, 0.5374459624290466, 0.7608128786087036, 0.6789706945419312, 0.4141727089881897, 6.471365928649902, 0.9750030040740967, 0.22149837017059326, 0.2652393877506256, 0.09767042100429535, 0.16024290025234222, 0.9985508918762207, 0.9739413857460022, 0.5805209875106812
3, 26, 17, 30Perc, new, 0.8519535660743713, 1.1742225885391235, 0.7463569641113281, 0.6488952040672302, 0.5374459624290466, 0.7608128786087036, 0.6789706945419312, 0.4141727089881897, 6.471365928649902, 0.9750030040740967, 0.22149837017059326, 0.2652393877506256, 2.5510005950927734, 2.5683393478393555, 0.10409370809793472, 0.09554831683635712, 0.10018983483314514
3, 26, 52, 16Perc, all, 0.8519535660743713, 1.1742225885391235, 0.7463569641113281, 0.6488952040672302, 0.5374459624290466, 0.7345786094665527, 0.7037602663040161, 0.48923569917678833, 12.807696342468262, 0.9949312210083008, 0.14750541746616364, 0.17723453044891357, 0.09612074494361877, 0.1161254495382309, 0.9997586011886597, 0.9956616163253784, 0.49932095408439636
3, 26, 43, 16Perc, first, 0.8519535660743713, 1.1742225885391235, 0.7463569641113281, 0.6488952040672302, 0.5374459624290466, 0.7345786094665527, 0.7037602663040161, 0.48923569917678833, 12.807696342468262, 0.9949312210083008, 0.14750541746616364, 0.17723453044891357, 0.10514086484909058, 0.13135628402233124, 1.0, 0.9913232326507568, 0.49384602904319763
3, 26, 36, 16Perc, last, 0.8519535660743713, 1.1742225885391235, 0.7463569641113281, 0.6488952040672302, 0.5374459624290466, 0.7345786094665527, 0.7037602663040161, 0.48923569917678833, 12.807696342468262, 0.9949312210083008, 0.14750541746616364, 0.17723453044891357, 0.12565220892429352, 0.15308411419391632, 0.9961380362510681, 0.9848155975341797, 0.4925727844238281
3, 26, 37, 16Perc, first_last, 0.8519535660743713, 1.1742225885391235, 0.7463569641113281, 0.6488952040672302, 0.5374459624290466, 0.7345786094665527, 0.7037602663040161, 0.48923569917678833, 12.807696342468262, 0.9949312210083008, 0.14750541746616364, 0.17723453044891357, 0.10939846187829971, 0.13854892551898956, 0.9995172619819641, 0.989154040813446, 0.5125625729560852
3, 26, 11, 16Perc, new, 0.8519535660743713, 1.1742225885391235, 0.7463569641113281, 0.6488952040672302, 0.5374459624290466, 0.7345786094665527, 0.7037602663040161, 0.48923569917678833, 12.807696342468262, 0.9949312210083008, 0.14750541746616364, 0.17723453044891357, 2.6131174564361572, 2.603753089904785, 0.11320299655199051, 0.1149674654006958, 0.09392241388559341
3, 26, 39, fiveMovements, all, 0.8519535660743713, 1.1742225885391235, 0.7463569641113281, 0.6488952040672302, 0.5374459624290466, 0.8098591566085815, 0.6876959800720215, 0.5245794057846069, 3.4896297454833984, 1.0, 0.48241207003593445, 0.23781882226467133, 0.1179586872458458, 0.13007022440433502, 0.9994410276412964, 0.9949748516082764, 0.27849334478378296
3, 26, 40, fiveMovements, first, 0.8519535660743713, 1.1742225885391235, 0.7463569641113281, 0.6488952040672302, 0.5374459624290466, 0.8098591566085815, 0.6876959800720215, 0.5245794057846069, 3.4896297454833984, 1.0, 0.48241207003593445, 0.23781882226467133, 0.11640297621488571, 0.13179707527160645, 1.0, 0.9949748516082764, 0.28171342611312866
3, 26, 38, fiveMovements, last, 0.8519535660743713, 1.1742225885391235, 0.7463569641113281, 0.6488952040672302, 0.5374459624290466, 0.8098591566085815, 0.6876959800720215, 0.5245794057846069, 3.4896297454833984, 1.0, 0.48241207003593445, 0.23781882226467133, 0.11916210502386093, 0.1316322237253189, 0.9988820552825928, 0.9949748516082764, 0.27463772892951965
3, 26, 40, fiveMovements, first_last, 0.8519535660743713, 1.1742225885391235, 0.7463569641113281, 0.6488952040672302, 0.5374459624290466, 0.8098591566085815, 0.6876959800720215, 0.5245794057846069, 3.4896297454833984, 1.0, 0.48241207003593445, 0.23781882226467133, 0.11714249849319458, 0.1296418011188507, 1.0, 0.9949748516082764, 0.27218031883239746
3, 26, 12, fiveMovements, new, 0.8519535660743713, 1.1742225885391235, 0.7463569641113281, 0.6488952040672302, 0.5374459624290466, 0.8098591566085815, 0.6876959800720215, 0.5245794057846069, 3.4896297454833984, 1.0, 0.48241207003593445, 0.23781882226467133, 2.578809976577759, 2.5485763549804688, 0.21911682188510895, 0.1658291518688202, 0.1004575863480568
3, 26, 13, oneMovement, all, 0.8519535660743713, 1.1742225885391235, 0.7463569641113281, 0.6488952040672302, 0.5374459624290466, 0.800000011920929, 0.6933808326721191, 1.1210275888442993, 1.1179200410842896, 1.0, 1.0, 0.0969342291355133, 0.1328214704990387, 0.13186165690422058, 1.0, 1.0, 0.32209643721580505
3, 26, 13, oneMovement, first, 0.8519535660743713, 1.1742225885391235, 0.7463569641113281, 0.6488952040672302, 0.5374459624290466, 0.800000011920929, 0.6933808326721191, 1.1210275888442993, 1.1179200410842896, 1.0, 1.0, 0.0969342291355133, 0.1333584487438202, 0.1317596286535263, 1.0, 1.0, 0.3263791799545288
3, 26, 13, oneMovement, last, 0.8519535660743713, 1.1742225885391235, 0.7463569641113281, 0.6488952040672302, 0.5374459624290466, 0.800000011920929, 0.6933808326721191, 1.1210275888442993, 1.1179200410842896, 1.0, 1.0, 0.0969342291355133, 0.1335027664899826, 0.13180874288082123, 1.0, 1.0, 0.3271848261356354
3, 26, 13, oneMovement, first_last, 0.8519535660743713, 1.1742225885391235, 0.7463569641113281, 0.6488952040672302, 0.5374459624290466, 0.800000011920929, 0.6933808326721191, 1.1210275888442993, 1.1179200410842896, 1.0, 1.0, 0.0969342291355133, 0.13599321246147156, 0.13181951642036438, 1.0, 1.0, 0.32782089710235596
3, 26, 14, oneMovement, new, 0.8519535660743713, 1.1742225885391235, 0.7463569641113281, 0.6488952040672302, 0.5374459624290466, 0.800000011920929, 0.6933808326721191, 1.1210275888442993, 1.1179200410842896, 1.0, 1.0, 0.0969342291355133, 3.4411191940307617, 3.369199514389038, 1.0, 1.0, 0.0969342291355133
4, 35, 44, 83Perc, all, 0.7962338924407959, 1.2205626964569092, 0.7671866416931152, 0.6493186354637146, 0.5295090079307556, 0.8435670137405396, 0.4490084946155548, 0.09659484773874283, 0.3081345856189728, 0.9953590631484985, 0.9207921028137207, 0.554836094379425, 0.10710472613573074, 0.19832229614257812, 0.9886608123779297, 0.9599655866622925, 0.5301497578620911
4, 35, 24, 83Perc, first, 0.7962338924407959, 1.2205626964569092, 0.7671866416931152, 0.6493186354637146, 0.5295090079307556, 0.8435670137405396, 0.4490084946155548, 0.09659484773874283, 0.3081345856189728, 0.9953590631484985, 0.9207921028137207, 0.554836094379425, 0.12240620702505112, 0.21533022820949554, 0.9913879632949829, 0.9522169828414917, 0.5048563480377197
4, 35, 39, 83Perc, last, 0.7962338924407959, 1.2205626964569092, 0.7671866416931152, 0.6493186354637146, 0.5295090079307556, 0.8435670137405396, 0.4490084946155548, 0.09659484773874283, 0.3081345856189728, 0.9953590631484985, 0.9207921028137207, 0.554836094379425, 0.10494472831487656, 0.23191916942596436, 0.99105304479599, 0.9410245418548584, 0.5200323462486267
4, 35, 38, 83Perc, first_last, 0.7962338924407959, 1.2205626964569092, 0.7671866416931152, 0.6493186354637146, 0.5295090079307556, 0.8435670137405396, 0.4490084946155548, 0.09659484773874283, 0.3081345856189728, 0.9953590631484985, 0.9207921028137207, 0.554836094379425, 0.11333426088094711, 0.2021423876285553, 0.988756537437439, 0.9547998309135437, 0.5301497578620911
4, 35, 12, 83Perc, new, 0.7962338924407959, 1.2205626964569092, 0.7671866416931152, 0.6493186354637146, 0.5295090079307556, 0.8435670137405396, 0.4490084946155548, 0.09659484773874283, 0.3081345856189728, 0.9953590631484985, 0.9207921028137207, 0.554836094379425, 2.534176826477051, 2.5242297649383545, 0.10066504031419754, 0.09470511972904205, 0.08640226721763611
4, 35, 42, 60Perc, all, 0.7962338924407959, 1.2205626964569092, 0.7671866416931152, 0.6493186354637146, 0.5295090079307556, 0.7426338791847229, 0.6255519986152649, 0.34445321559906006, 11.887898445129395, 0.972446620464325, 0.16820400953292847, 0.2603471279144287, 0.0913756713271141, 0.18105703592300415, 0.9946340322494507, 0.9625610709190369, 0.544418215751648
4, 35, 54, 60Perc, first, 0.7962338924407959, 1.2205626964569092, 0.7671866416931152, 0.6493186354637146, 0.5295090079307556, 0.7426338791847229, 0.6255519986152649, 0.34445321559906006, 11.887898445129395, 0.972446620464325, 0.16820400953292847, 0.2603471279144287, 0.09063051640987396, 0.16554996371269226, 0.9927046895027161, 0.9685295820236206, 0.5518126487731934
4, 35, 46, 60Perc, last, 0.7962338924407959, 1.2205626964569092, 0.7671866416931152, 0.6493186354637146, 0.5295090079307556, 0.7426338791847229, 0.6255519986152649, 0.34445321559906006, 11.887898445129395, 0.972446620464325, 0.16820400953292847, 0.2603471279144287, 0.09658213704824448, 0.1635604202747345, 0.9923429489135742, 0.9679870009422302, 0.5561261177062988
4, 35, 51, 60Perc, first_last, 0.7962338924407959, 1.2205626964569092, 0.7671866416931152, 0.6493186354637146, 0.5295090079307556, 0.7426338791847229, 0.6255519986152649, 0.34445321559906006, 11.887898445129395, 0.972446620464325, 0.16820400953292847, 0.2603471279144287, 0.08823595196008682, 0.16445091366767883, 0.9930664300918579, 0.960933268070221, 0.5381534099578857
4, 35, 11, 60Perc, new, 0.7962338924407959, 1.2205626964569092, 0.7671866416931152, 0.6493186354637146, 0.5295090079307556, 0.7426338791847229, 0.6255519986152649, 0.34445321559906006, 11.887898445129395, 0.972446620464325, 0.16820400953292847, 0.2603471279144287, 2.543861150741577, 2.548740863800049, 0.10484746098518372, 0.09169831871986389, 0.09766868501901627
4, 35, 42, 30Perc, all, 0.7962338924407959, 1.2205626964569092, 0.7671866416931152, 0.6493186354637146, 0.5295090079307556, 0.7517930865287781, 0.6810272336006165, 0.42015811800956726, 22.266443252563477, 0.9799541234970093, 0.11617806553840637, 0.20438726246356964, 0.0936436876654625, 0.1471424698829651, 0.9986716508865356, 0.9815418124198914, 0.548565685749054
4, 35, 45, 30Perc, first, 0.7962338924407959, 1.2205626964569092, 0.7671866416931152, 0.6493186354637146, 0.5295090079307556, 0.7517930865287781, 0.6810272336006165, 0.42015811800956726, 22.266443252563477, 0.9799541234970093, 0.11617806553840637, 0.20438726246356964, 0.08927319943904877, 0.15327471494674683, 0.9987924098968506, 0.9728555679321289, 0.5402341485023499
4, 35, 31, 30Perc, last, 0.7962338924407959, 1.2205626964569092, 0.7671866416931152, 0.6493186354637146, 0.5295090079307556, 0.7517930865287781, 0.6810272336006165, 0.42015811800956726, 22.266443252563477, 0.9799541234970093, 0.11617806553840637, 0.20438726246356964, 0.1165701299905777, 0.19924724102020264, 0.9963772296905518, 0.9685124754905701, 0.5482493042945862
4, 35, 39, 30Perc, first_last, 0.7962338924407959, 1.2205626964569092, 0.7671866416931152, 0.6493186354637146, 0.5295090079307556, 0.7517930865287781, 0.6810272336006165, 0.42015811800956726, 22.266443252563477, 0.9799541234970093, 0.11617806553840637, 0.20438726246356964, 0.0985206887125969, 0.15570996701717377, 0.997947096824646, 0.9771987199783325, 0.5480383634567261
4, 35, 16, 30Perc, new, 0.7962338924407959, 1.2205626964569092, 0.7671866416931152, 0.6493186354637146, 0.5295090079307556, 0.7517930865287781, 0.6810272336006165, 0.42015811800956726, 22.266443252563477, 0.9799541234970093, 0.11617806553840637, 0.20438726246356964, 2.563384771347046, 2.563974380493164, 0.1037314310669899, 0.09880564361810684, 0.10018983483314514
4, 35, 33, 16Perc, all, 0.7962338924407959, 1.2205626964569092, 0.7671866416931152, 0.6493186354637146, 0.5295090079307556, 0.7571676969528198, 0.7105084657669067, 0.21915432810783386, 7.809238433837891, 0.9995172619819641, 0.3253796100616455, 0.24174518883228302, 0.13132843375205994, 0.17765134572982788, 0.9971035718917847, 0.9848155975341797, 0.4970715641975403
4, 35, 28, 16Perc, first, 0.7962338924407959, 1.2205626964569092, 0.7671866416931152, 0.6493186354637146, 0.5295090079307556, 0.7571676969528198, 0.7105084657669067, 0.21915432810783386, 7.809238433837891, 0.9995172619819641, 0.3253796100616455, 0.24174518883228302, 0.13188768923282623, 0.17587199807167053, 0.9978276491165161, 0.9804772138595581, 0.514302670955658
4, 35, 39, 16Perc, last, 0.7962338924407959, 1.2205626964569092, 0.7671866416931152, 0.6493186354637146, 0.5295090079307556, 0.7571676969528198, 0.7105084657669067, 0.21915432810783386, 7.809238433837891, 0.9995172619819641, 0.3253796100616455, 0.24174518883228302, 0.11493607610464096, 0.1472581923007965, 0.9995172619819641, 0.989154040813446, 0.5066208243370056
4, 35, 31, 16Perc, first_last, 0.7962338924407959, 1.2205626964569092, 0.7671866416931152, 0.6493186354637146, 0.5295090079307556, 0.7571676969528198, 0.7105084657669067, 0.21915432810783386, 7.809238433837891, 0.9995172619819641, 0.3253796100616455, 0.24174518883228302, 0.12688452005386353, 0.1542949229478836, 0.9987931251525879, 0.9869847893714905, 0.4992360472679138
4, 35, 13, 16Perc, new, 0.7962338924407959, 1.2205626964569092, 0.7671866416931152, 0.6493186354637146, 0.5295090079307556, 0.7571676969528198, 0.7105084657669067, 0.21915432810783386, 7.809238433837891, 0.9995172619819641, 0.3253796100616455, 0.24174518883228302, 2.5927512645721436, 2.5909762382507324, 0.11561670154333115, 0.09327548742294312, 0.09392241388559341
4, 35, 38, fiveMovements, all, 0.7962338924407959, 1.2205626964569092, 0.7671866416931152, 0.6493186354637146, 0.5295090079307556, 0.751006007194519, 0.677484929561615, 0.563529908657074, 6.174454212188721, 1.0, 0.2613065242767334, 0.2496398538351059, 0.12769776582717896, 0.14728239178657532, 0.9988820552825928, 0.9899497628211975, 0.290187269449234
4, 35, 39, fiveMovements, first, 0.7962338924407959, 1.2205626964569092, 0.7671866416931152, 0.6493186354637146, 0.5295090079307556, 0.751006007194519, 0.677484929561615, 0.563529908657074, 6.174454212188721, 1.0, 0.2613065242767334, 0.2496398538351059, 0.12663796544075012, 0.1472553312778473, 0.9994410276412964, 0.9899497628211975, 0.28980594873428345
4, 35, 35, fiveMovements, last, 0.7962338924407959, 1.2205626964569092, 0.7671866416931152, 0.6493186354637146, 0.5295090079307556, 0.751006007194519, 0.677484929561615, 0.563529908657074, 6.174454212188721, 1.0, 0.2613065242767334, 0.2496398538351059, 0.12944427132606506, 0.151364266872406, 0.9994410276412964, 0.9949748516082764, 0.28349292278289795
4, 35, 43, fiveMovements, first_last, 0.7962338924407959, 1.2205626964569092, 0.7671866416931152, 0.6493186354637146, 0.5295090079307556, 0.751006007194519, 0.677484929561615, 0.563529908657074, 6.174454212188721, 1.0, 0.2613065242767334, 0.2496398538351059, 0.12394192069768906, 0.14504656195640564, 0.9994410276412964, 0.9899497628211975, 0.29052624106407166
4, 35, 20, fiveMovements, new, 0.7962338924407959, 1.2205626964569092, 0.7671866416931152, 0.6493186354637146, 0.5295090079307556, 0.751006007194519, 0.677484929561615, 0.563529908657074, 6.174454212188721, 1.0, 0.2613065242767334, 0.2496398538351059, 2.2786574363708496, 2.248412847518921, 0.2459474503993988, 0.23115578293800354, 0.09791543334722519
4, 35, 17, oneMovement, all, 0.7962338924407959, 1.2205626964569092, 0.7671866416931152, 0.6493186354637146, 0.5295090079307556, 0.6979591846466064, 0.6907094120979309, 1.1441855430603027, 1.1070712804794312, 0.9886621236801147, 1.0, 0.0969342291355133, 0.14216087758541107, 0.1425457000732422, 1.0, 1.0, 0.12237628549337387
4, 35, 17, oneMovement, first, 0.7962338924407959, 1.2205626964569092, 0.7671866416931152, 0.6493186354637146, 0.5295090079307556, 0.6979591846466064, 0.6907094120979309, 1.1441855430603027, 1.1070712804794312, 0.9886621236801147, 1.0, 0.0969342291355133, 0.14197498559951782, 0.14276179671287537, 1.0, 1.0, 0.12602297961711884
4, 35, 17, oneMovement, last, 0.7962338924407959, 1.2205626964569092, 0.7671866416931152, 0.6493186354637146, 0.5295090079307556, 0.6979591846466064, 0.6907094120979309, 1.1441855430603027, 1.1070712804794312, 0.9886621236801147, 1.0, 0.0969342291355133, 0.14200657606124878, 0.14254936575889587, 1.0, 1.0, 0.12055294215679169
4, 35, 18, oneMovement, first_last, 0.7962338924407959, 1.2205626964569092, 0.7671866416931152, 0.6493186354637146, 0.5295090079307556, 0.6979591846466064, 0.6907094120979309, 1.1441855430603027, 1.1070712804794312, 0.9886621236801147, 1.0, 0.0969342291355133, 0.14202235639095306, 0.14227259159088135, 1.0, 1.0, 0.11147860437631607
4, 35, 16, oneMovement, new, 0.7962338924407959, 1.2205626964569092, 0.7671866416931152, 0.6493186354637146, 0.5295090079307556, 0.6979591846466064, 0.6907094120979309, 1.1441855430603027, 1.1070712804794312, 0.9886621236801147, 1.0, 0.0969342291355133, 3.358036756515503, 3.2915396690368652, 1.0, 1.0, 0.0969342291355133
5, 47, 34, 83Perc, all, 0.7594579458236694, 1.2667285203933716, 0.7818529605865479, 0.643698513507843, 0.5278754830360413, 0.8709955215454102, 0.43565356731414795, 0.30949723720550537, 7.608184337615967, 0.9714846014976501, 0.32156693935394287, 0.354310005903244, 0.11473533511161804, 0.2581597566604614, 0.9885172843933105, 0.9362893104553223, 0.5459328293800354
5, 47, 35, 83Perc, first, 0.7594579458236694, 1.2667285203933716, 0.7818529605865479, 0.643698513507843, 0.5278754830360413, 0.8709955215454102, 0.43565356731414795, 0.30949723720550537, 7.608184337615967, 0.9714846014976501, 0.32156693935394287, 0.354310005903244, 0.10570332407951355, 0.2378346174955368, 0.9926319122314453, 0.9474816918373108, 0.5503844618797302
5, 47, 34, 83Perc, last, 0.7594579458236694, 1.2667285203933716, 0.7818529605865479, 0.643698513507843, 0.5278754830360413, 0.8709955215454102, 0.43565356731414795, 0.30949723720550537, 7.608184337615967, 0.9714846014976501, 0.32156693935394287, 0.354310005903244, 0.10815032571554184, 0.19164836406707764, 0.9913879632949829, 0.9547998309135437, 0.5479562878608704
5, 47, 48, 83Perc, first_last, 0.7594579458236694, 1.2667285203933716, 0.7818529605865479, 0.643698513507843, 0.5278754830360413, 0.8709955215454102, 0.43565356731414795, 0.30949723720550537, 7.608184337615967, 0.9714846014976501, 0.32156693935394287, 0.354310005903244, 0.09793733060359955, 0.2463437020778656, 0.991866409778595, 0.9380111694335938, 0.5647510886192322
5, 47, 15, 83Perc, new, 0.7594579458236694, 1.2667285203933716, 0.7818529605865479, 0.643698513507843, 0.5278754830360413, 0.8709955215454102, 0.43565356731414795, 0.30949723720550537, 7.608184337615967, 0.9714846014976501, 0.32156693935394287, 0.354310005903244, 2.525559186935425, 2.526306629180908, 0.10257882624864578, 0.09857942163944244, 0.09834074974060059
5, 47, 44, 60Perc, all, 0.7594579458236694, 1.2667285203933716, 0.7818529605865479, 0.643698513507843, 0.5278754830360413, 0.7290683388710022, 0.6313032507896423, 0.05945759639143944, 0.2461666315793991, 0.9983118176460266, 0.9316332340240479, 0.4963541030883789, 0.09529437869787216, 0.1637713611125946, 0.9932473301887512, 0.9679870009422302, 0.5781041383743286
5, 47, 36, 60Perc, first, 0.7594579458236694, 1.2667285203933716, 0.7818529605865479, 0.643698513507843, 0.5278754830360413, 0.7290683388710022, 0.6313032507896423, 0.05945759639143944, 0.2461666315793991, 0.9983118176460266, 0.9316332340240479, 0.4963541030883789, 0.10026593506336212, 0.19704407453536987, 0.9937296509742737, 0.956049919128418, 0.5806716680526733
5, 47, 35, 60Perc, last, 0.7594579458236694, 1.2667285203933716, 0.7818529605865479, 0.643698513507843, 0.5278754830360413, 0.7290683388710022, 0.6313032507896423, 0.05945759639143944, 0.2461666315793991, 0.9983118176460266, 0.9316332340240479, 0.4963541030883789, 0.10705652832984924, 0.21015584468841553, 0.9919208884239197, 0.9603906869888306, 0.5720447897911072
5, 47, 27, 60Perc, first_last, 0.7594579458236694, 1.2667285203933716, 0.7818529605865479, 0.643698513507843, 0.5278754830360413, 0.7290683388710022, 0.6313032507896423, 0.05945759639143944, 0.2461666315793991, 0.9983118176460266, 0.9316332340240479, 0.4963541030883789, 0.11761964857578278, 0.23444849252700806, 0.9922826290130615, 0.9489961862564087, 0.5905309915542603
5, 47, 11, 60Perc, new, 0.7594579458236694, 1.2667285203933716, 0.7818529605865479, 0.643698513507843, 0.5278754830360413, 0.7290683388710022, 0.6313032507896423, 0.05945759639143944, 0.2461666315793991, 0.9983118176460266, 0.9316332340240479, 0.4963541030883789, 2.5488979816436768, 2.5507240295410156, 0.10478717088699341, 0.08681497722864151, 0.09766868501901627
5, 47, 31, 30Perc, all, 0.7594579458236694, 1.2667285203933716, 0.7818529605865479, 0.643698513507843, 0.5278754830360413, 0.7459247708320618, 0.6888314485549927, 0.4104495048522949, 25.07932472229004, 0.9713802933692932, 0.10857763141393661, 0.2117169350385666, 0.11839079111814499, 0.21749363839626312, 0.9962564706802368, 0.9695982336997986, 0.5642796754837036
5, 47, 38, 30Perc, first, 0.7594579458236694, 1.2667285203933716, 0.7818529605865479, 0.643698513507843, 0.5278754830360413, 0.7459247708320618, 0.6888314485549927, 0.4104495048522949, 25.07932472229004, 0.9713802933692932, 0.10857763141393661, 0.2117169350385666, 0.10231775790452957, 0.19662965834140778, 0.9987924098968506, 0.9652551412582397, 0.5797827243804932
5, 47, 45, 30Perc, last, 0.7594579458236694, 1.2667285203933716, 0.7818529605865479, 0.643698513507843, 0.5278754830360413, 0.7459247708320618, 0.6888314485549927, 0.4104495048522949, 25.07932472229004, 0.9713802933692932, 0.10857763141393661, 0.2117169350385666, 0.09278940409421921, 0.1637406200170517, 0.9983093738555908, 0.9739413857460022, 0.5681818127632141
5, 47, 49, 30Perc, first_last, 0.7594579458236694, 1.2667285203933716, 0.7818529605865479, 0.643698513507843, 0.5278754830360413, 0.7459247708320618, 0.6888314485549927, 0.4104495048522949, 25.07932472229004, 0.9713802933692932, 0.10857763141393661, 0.2117169350385666, 0.09155867993831635, 0.20150236785411835, 0.997826337814331, 0.9609120488166809, 0.5676544904708862
5, 47, 11, 30Perc, new, 0.7594579458236694, 1.2667285203933716, 0.7818529605865479, 0.643698513507843, 0.5278754830360413, 0.7459247708320618, 0.6888314485549927, 0.4104495048522949, 25.07932472229004, 0.9713802933692932, 0.10857763141393661, 0.2117169350385666, 2.5836234092712402, 2.5832600593566895, 0.10264460742473602, 0.10532030463218689, 0.09734233468770981
5, 47, 38, 16Perc, all, 0.7594579458236694, 1.2667285203933716, 0.7818529605865479, 0.643698513507843, 0.5278754830360413, 0.7814943790435791, 0.7159408926963806, 0.5146353840827942, 7.519537448883057, 0.9961380362510681, 0.17787419259548187, 0.272472620010376, 0.13512547314167023, 0.20703913271427155, 0.9966208338737488, 0.9609544277191162, 0.5144299864768982
5, 47, 34, 16Perc, first, 0.7594579458236694, 1.2667285203933716, 0.7818529605865479, 0.643698513507843, 0.5278754830360413, 0.7814943790435791, 0.7159408926963806, 0.5146353840827942, 7.519537448883057, 0.9961380362510681, 0.17787419259548187, 0.272472620010376, 0.1362214982509613, 0.1853245347738266, 0.9956552982330322, 0.9783080220222473, 0.5248705744743347
5, 47, 38, 16Perc, last, 0.7594579458236694, 1.2667285203933716, 0.7818529605865479, 0.643698513507843, 0.5278754830360413, 0.7814943790435791, 0.7159408926963806, 0.5146353840827942, 7.519537448883057, 0.9961380362510681, 0.17787419259548187, 0.272472620010376, 0.12888002395629883, 0.15319646894931793, 0.9966208338737488, 0.9869847893714905, 0.5096341371536255
5, 47, 36, 16Perc, first_last, 0.7594579458236694, 1.2667285203933716, 0.7818529605865479, 0.643698513507843, 0.5278754830360413, 0.7814943790435791, 0.7159408926963806, 0.5146353840827942, 7.519537448883057, 0.9961380362510681, 0.17787419259548187, 0.272472620010376, 0.1257743537425995, 0.16204223036766052, 0.9995172619819641, 0.9848155975341797, 0.5134538412094116
5, 47, 13, 16Perc, new, 0.7594579458236694, 1.2667285203933716, 0.7818529605865479, 0.643698513507843, 0.5278754830360413, 0.7814943790435791, 0.7159408926963806, 0.5146353840827942, 7.519537448883057, 0.9961380362510681, 0.17787419259548187, 0.272472620010376, 2.595038890838623, 2.596534490585327, 0.1153753325343132, 0.0954446867108345, 0.0978270098567009
5, 47, 49, fiveMovements, all, 0.7594579458236694, 1.2667285203933716, 0.7818529605865479, 0.643698513507843, 0.5278754830360413, 0.8133803009986877, 0.68248450756073, 0.6533617377281189, 4.537667274475098, 1.0, 0.4070351719856262, 0.19299212098121643, 0.12626203894615173, 0.1266389638185501, 0.9994410276412964, 1.0, 0.2952715754508972
5, 47, 50, fiveMovements, first, 0.7594579458236694, 1.2667285203933716, 0.7818529605865479, 0.643698513507843, 0.5278754830360413, 0.8133803009986877, 0.68248450756073, 0.6533617377281189, 4.537667274475098, 1.0, 0.4070351719856262, 0.19299212098121643, 0.12691369652748108, 0.12681755423545837, 0.9994410276412964, 1.0, 0.2908651828765869
5, 47, 49, fiveMovements, last, 0.7594579458236694, 1.2667285203933716, 0.7818529605865479, 0.643698513507843, 0.5278754830360413, 0.8133803009986877, 0.68248450756073, 0.6533617377281189, 4.537667274475098, 1.0, 0.4070351719856262, 0.19299212098121643, 0.1254233717918396, 0.12738783657550812, 1.0, 1.0, 0.2874756455421448
5, 47, 42, fiveMovements, first_last, 0.7594579458236694, 1.2667285203933716, 0.7818529605865479, 0.643698513507843, 0.5278754830360413, 0.8133803009986877, 0.68248450756073, 0.6533617377281189, 4.537667274475098, 1.0, 0.4070351719856262, 0.19299212098121643, 0.13033151626586914, 0.1297380030155182, 0.9994410276412964, 1.0, 0.2956952750682831
5, 47, 19, fiveMovements, new, 0.7594579458236694, 1.2667285203933716, 0.7818529605865479, 0.643698513507843, 0.5278754830360413, 0.8133803009986877, 0.68248450756073, 0.6533617377281189, 4.537667274475098, 1.0, 0.4070351719856262, 0.19299212098121643, 2.303900957107544, 2.2888245582580566, 0.24482952058315277, 0.24120603501796722, 0.09791543334722519
5, 47, 19, oneMovement, all, 0.7594579458236694, 1.2667285203933716, 0.7818529605865479, 0.643698513507843, 0.5278754830360413, 0.8285714387893677, 0.6946953535079956, 1.0992796421051025, 1.09092378616333, 1.0, 1.0, 0.0969342291355133, 0.14700031280517578, 0.1524365246295929, 1.0, 1.0, 0.13450366258621216
5, 47, 23, oneMovement, first, 0.7594579458236694, 1.2667285203933716, 0.7818529605865479, 0.643698513507843, 0.5278754830360413, 0.8285714387893677, 0.6946953535079956, 1.0992796421051025, 1.09092378616333, 1.0, 1.0, 0.0969342291355133, 0.14725719392299652, 0.1531207263469696, 1.0, 1.0, 0.10528770834207535
5, 47, 18, oneMovement, last, 0.7594579458236694, 1.2667285203933716, 0.7818529605865479, 0.643698513507843, 0.5278754830360413, 0.8285714387893677, 0.6946953535079956, 1.0992796421051025, 1.09092378616333, 1.0, 1.0, 0.0969342291355133, 0.146842822432518, 0.1525905430316925, 1.0, 1.0, 0.15053215622901917
5, 47, 23, oneMovement, first_last, 0.7594579458236694, 1.2667285203933716, 0.7818529605865479, 0.643698513507843, 0.5278754830360413, 0.8285714387893677, 0.6946953535079956, 1.0992796421051025, 1.09092378616333, 1.0, 1.0, 0.0969342291355133, 0.14720483124256134, 0.15133902430534363, 1.0, 1.0, 0.10702624917030334
5, 47, 13, oneMovement, new, 0.7594579458236694, 1.2667285203933716, 0.7818529605865479, 0.643698513507843, 0.5278754830360413, 0.8285714387893677, 0.6946953535079956, 1.0992796421051025, 1.09092378616333, 1.0, 1.0, 0.0969342291355133, 3.5829315185546875, 3.5093915462493896, 1.0, 1.0, 0.0969342291355133
6, 29, 40, 83Perc, all, 0.8302236795425415, 1.1625562906265259, 0.7547786235809326, 0.6552082300186157, 0.5391178727149963, 0.8118756413459778, 0.45973289012908936, 0.09438522905111313, 0.28192639350891113, 0.9968422651290894, 0.9233749508857727, 0.5449211001396179, 0.09104584157466888, 0.26221567392349243, 0.9944978952407837, 0.9380111694335938, 0.5275192260742188
6, 29, 27, 83Perc, first, 0.8302236795425415, 1.1625562906265259, 0.7547786235809326, 0.6552082300186157, 0.5391178727149963, 0.8118756413459778, 0.45973289012908936, 0.09438522905111313, 0.28192639350891113, 0.9968422651290894, 0.9233749508857727, 0.5449211001396179, 0.11789517849683762, 0.23500917851924896, 0.990048348903656, 0.9470512270927429, 0.55524080991745
6, 29, 34, 83Perc, last, 0.8302236795425415, 1.1625562906265259, 0.7547786235809326, 0.6552082300186157, 0.5391178727149963, 0.8118756413459778, 0.45973289012908936, 0.09438522905111313, 0.28192639350891113, 0.9968422651290894, 0.9233749508857727, 0.5449211001396179, 0.09967311471700668, 0.1924590766429901, 0.9942586421966553, 0.9608265161514282, 0.55524080991745
6, 29, 44, 83Perc, first_last, 0.8302236795425415, 1.1625562906265259, 0.7547786235809326, 0.6552082300186157, 0.5391178727149963, 0.8118756413459778, 0.45973289012908936, 0.09438522905111313, 0.28192639350891113, 0.9968422651290894, 0.9233749508857727, 0.5449211001396179, 0.09018266946077347, 0.2710016071796417, 0.9931103587150574, 0.9315540194511414, 0.5356131196022034
6, 29, 11, 83Perc, new, 0.8302236795425415, 1.1625562906265259, 0.7547786235809326, 0.6552082300186157, 0.5391178727149963, 0.8118756413459778, 0.45973289012908936, 0.09438522905111313, 0.28192639350891113, 0.9968422651290894, 0.9233749508857727, 0.5449211001396179, 2.533133029937744, 2.5292112827301025, 0.10262666642665863, 0.09298320859670639, 0.08640226721763611
6, 29, 54, 60Perc, all, 0.8302236795425415, 1.1625562906265259, 0.7547786235809326, 0.6552082300186157, 0.5391178727149963, 0.7435020804405212, 0.6161035299301147, 0.32904481887817383, 21.563810348510742, 0.9735921621322632, 0.07162235677242279, 0.28735750913619995, 0.07751858979463577, 0.1446039378643036, 0.994814932346344, 0.9712425470352173, 0.5502721667289734
6, 29, 56, 60Perc, first, 0.8302236795425415, 1.1625562906265259, 0.7547786235809326, 0.6552082300186157, 0.5391178727149963, 0.7435020804405212, 0.6161035299301147, 0.32904481887817383, 21.563810348510742, 0.9735921621322632, 0.07162235677242279, 0.28735750913619995, 0.06910963356494904, 0.14980196952819824, 0.997286856174469, 0.9706999659538269, 0.5302454829216003
6, 29, 43, 60Perc, last, 0.8302236795425415, 1.1625562906265259, 0.7547786235809326, 0.6552082300186157, 0.5391178727149963, 0.7435020804405212, 0.6161035299301147, 0.32904481887817383, 21.563810348510742, 0.9735921621322632, 0.07162235677242279, 0.28735750913619995, 0.0972805842757225, 0.17196321487426758, 0.9921620488166809, 0.9658166170120239, 0.5406182408332825
6, 29, 47, 60Perc, first_last, 0.8302236795425415, 1.1625562906265259, 0.7547786235809326, 0.6552082300186157, 0.5391178727149963, 0.7435020804405212, 0.6161035299301147, 0.32904481887817383, 21.563810348510742, 0.9735921621322632, 0.07162235677242279, 0.28735750913619995, 0.08459345996379852, 0.2082032412290573, 0.9939708113670349, 0.954422116279602, 0.5485262274742126
6, 29, 12, 60Perc, new, 0.8302236795425415, 1.1625562906265259, 0.7547786235809326, 0.6552082300186157, 0.5391178727149963, 0.7435020804405212, 0.6161035299301147, 0.32904481887817383, 21.563810348510742, 0.9735921621322632, 0.07162235677242279, 0.28735750913619995, 2.536389112472534, 2.5322425365448, 0.1003858670592308, 0.11231687664985657, 0.09766868501901627
6, 29, 28, 30Perc, all, 0.8302236795425415, 1.1625562906265259, 0.7547786235809326, 0.6552082300186157, 0.5391178727149963, 0.7442947030067444, 0.6884096264839172, 0.43913760781288147, 15.67134952545166, 0.974399209022522, 0.0673181340098381, 0.30547353625297546, 0.11566478759050369, 0.17604073882102966, 0.9977055788040161, 0.9695982336997986, 0.5616958737373352
6, 29, 25, 30Perc, first, 0.8302236795425415, 1.1625562906265259, 0.7547786235809326, 0.6552082300186157, 0.5391178727149963, 0.7442947030067444, 0.6884096264839172, 0.43913760781288147, 15.67134952545166, 0.974399209022522, 0.0673181340098381, 0.30547353625297546, 0.11716008931398392, 0.18426154553890228, 0.9975848197937012, 0.9706840515136719, 0.5726112723350525
6, 29, 29, 30Perc, last, 0.8302236795425415, 1.1625562906265259, 0.7547786235809326, 0.6552082300186157, 0.5391178727149963, 0.7442947030067444, 0.6884096264839172, 0.43913760781288147, 15.67134952545166, 0.974399209022522, 0.0673181340098381, 0.30547353625297546, 0.11300095915794373, 0.18552540242671967, 0.997947096824646, 0.9674267172813416, 0.5584792494773865
6, 29, 25, 30Perc, first_last, 0.8302236795425415, 1.1625562906265259, 0.7547786235809326, 0.6552082300186157, 0.5391178727149963, 0.7442947030067444, 0.6884096264839172, 0.43913760781288147, 15.67134952545166, 0.974399209022522, 0.0673181340098381, 0.30547353625297546, 0.11770075559616089, 0.19773389399051666, 0.9975848197937012, 0.9685124754905701, 0.566916286945343
6, 29, 12, 30Perc, new, 0.8302236795425415, 1.1625562906265259, 0.7547786235809326, 0.6552082300186157, 0.5391178727149963, 0.7442947030067444, 0.6884096264839172, 0.43913760781288147, 15.67134952545166, 0.974399209022522, 0.0673181340098381, 0.30547353625297546, 2.570415735244751, 2.561516523361206, 0.09890110045671463, 0.09120520949363708, 0.10018983483314514
6, 29, 37, 16Perc, all, 0.8302236795425415, 1.1625562906265259, 0.7547786235809326, 0.6552082300186157, 0.5391178727149963, 0.7599912881851196, 0.7040573954582214, 0.5569760203361511, 9.721193313598633, 0.9823799133300781, 0.15835140645503998, 0.17103810608386993, 0.11671620607376099, 0.17001990973949432, 0.9978276491165161, 0.9783080220222473, 0.4870554208755493
6, 29, 32, 16Perc, first, 0.8302236795425415, 1.1625562906265259, 0.7547786235809326, 0.6552082300186157, 0.5391178727149963, 0.7599912881851196, 0.7040573954582214, 0.5569760203361511, 9.721193313598633, 0.9823799133300781, 0.15835140645503998, 0.17103810608386993, 0.1252177655696869, 0.16202929615974426, 0.9966208338737488, 0.989154040813446, 0.5022069215774536
6, 29, 35, 16Perc, last, 0.8302236795425415, 1.1625562906265259, 0.7547786235809326, 0.6552082300186157, 0.5391178727149963, 0.7599912881851196, 0.7040573954582214, 0.5569760203361511, 9.721193313598633, 0.9823799133300781, 0.15835140645503998, 0.17103810608386993, 0.11622608453035355, 0.1520596146583557, 0.9992758631706238, 0.9869847893714905, 0.48943212628364563
6, 29, 41, 16Perc, first_last, 0.8302236795425415, 1.1625562906265259, 0.7547786235809326, 0.6552082300186157, 0.5391178727149963, 0.7599912881851196, 0.7040573954582214, 0.5569760203361511, 9.721193313598633, 0.9823799133300781, 0.15835140645503998, 0.17103810608386993, 0.1110241487622261, 0.1555676907300949, 0.9987931251525879, 0.989154040813446, 0.48442408442497253
6, 29, 14, 16Perc, new, 0.8302236795425415, 1.1625562906265259, 0.7547786235809326, 0.6552082300186157, 0.5391178727149963, 0.7599912881851196, 0.7040573954582214, 0.5569760203361511, 9.721193313598633, 0.9823799133300781, 0.15835140645503998, 0.17103810608386993, 2.5745246410369873, 2.6014952659606934, 0.11513396352529526, 0.09761388599872589, 0.09392241388559341
6, 29, 42, fiveMovements, all, 0.8302236795425415, 1.1625562906265259, 0.7547786235809326, 0.6552082300186157, 0.5391178727149963, 0.7937625646591187, 0.689263641834259, 0.43012315034866333, 5.162217140197754, 0.9994410276412964, 0.20603014528751373, 0.19184814393520355, 0.11924153566360474, 0.1346932202577591, 1.0, 0.9949748516082764, 0.2934496998786926
6, 29, 43, fiveMovements, first, 0.8302236795425415, 1.1625562906265259, 0.7547786235809326, 0.6552082300186157, 0.5391178727149963, 0.7937625646591187, 0.689263641834259, 0.43012315034866333, 5.162217140197754, 0.9994410276412964, 0.20603014528751373, 0.19184814393520355, 0.11872220039367676, 0.1287379413843155, 1.0, 0.9949748516082764, 0.29552578926086426
6, 29, 44, fiveMovements, last, 0.8302236795425415, 1.1625562906265259, 0.7547786235809326, 0.6552082300186157, 0.5391178727149963, 0.7937625646591187, 0.689263641834259, 0.43012315034866333, 5.162217140197754, 0.9994410276412964, 0.20603014528751373, 0.19184814393520355, 0.11937005817890167, 0.12689326703548431, 0.9994410276412964, 0.9949748516082764, 0.2888738214969635
6, 29, 41, fiveMovements, first_last, 0.8302236795425415, 1.1625562906265259, 0.7547786235809326, 0.6552082300186157, 0.5391178727149963, 0.7937625646591187, 0.689263641834259, 0.43012315034866333, 5.162217140197754, 0.9994410276412964, 0.20603014528751373, 0.19184814393520355, 0.12000571191310883, 0.13462255895137787, 1.0, 0.9949748516082764, 0.2950597405433655
6, 29, 12, fiveMovements, new, 0.8302236795425415, 1.1625562906265259, 0.7547786235809326, 0.6552082300186157, 0.5391178727149963, 0.7937625646591187, 0.689263641834259, 0.43012315034866333, 5.162217140197754, 0.9994410276412964, 0.20603014528751373, 0.19184814393520355, 2.573942184448242, 2.5305497646331787, 0.2174399048089981, 0.23115578293800354, 0.09579696506261826
6, 29, 13, oneMovement, all, 0.8302236795425415, 1.1625562906265259, 0.7547786235809326, 0.6552082300186157, 0.5391178727149963, 0.7673469185829163, 0.6888436675071716, 1.0885131359100342, 1.0789515972137451, 1.0, 1.0, 0.0969342291355133, 0.13802428543567657, 0.13656678795814514, 1.0, 1.0, 0.4751727879047394
6, 29, 13, oneMovement, first, 0.8302236795425415, 1.1625562906265259, 0.7547786235809326, 0.6552082300186157, 0.5391178727149963, 0.7673469185829163, 0.6888436675071716, 1.0885131359100342, 1.0789515972137451, 1.0, 1.0, 0.0969342291355133, 0.13710403442382812, 0.13657325506210327, 1.0, 1.0, 0.47122928500175476
6, 29, 13, oneMovement, last, 0.8302236795425415, 1.1625562906265259, 0.7547786235809326, 0.6552082300186157, 0.5391178727149963, 0.7673469185829163, 0.6888436675071716, 1.0885131359100342, 1.0789515972137451, 1.0, 1.0, 0.0969342291355133, 0.13830505311489105, 0.13658273220062256, 1.0, 1.0, 0.4619429111480713
6, 29, 13, oneMovement, first_last, 0.8302236795425415, 1.1625562906265259, 0.7547786235809326, 0.6552082300186157, 0.5391178727149963, 0.7673469185829163, 0.6888436675071716, 1.0885131359100342, 1.0789515972137451, 1.0, 1.0, 0.0969342291355133, 0.1369013637304306, 0.13659077882766724, 1.0, 1.0, 0.4721197485923767
6, 29, 16, oneMovement, new, 0.8302236795425415, 1.1625562906265259, 0.7547786235809326, 0.6552082300186157, 0.5391178727149963, 0.7673469185829163, 0.6888436675071716, 1.0885131359100342, 1.0789515972137451, 1.0, 1.0, 0.0969342291355133, 3.434375524520874, 3.3660998344421387, 1.0, 1.0, 0.0969342291355133
7, 26, 38, 83Perc, all, 0.8574862480163574, 1.1835315227508545, 0.746108889579773, 0.6507044434547424, 0.5355433821678162, 0.8157939910888672, 0.46560096740722656, 0.308045357465744, 6.629002571105957, 0.9733505845069885, 0.2871287167072296, 0.32274383306503296, 0.09254904091358185, 0.23602178692817688, 0.9943543076515198, 0.937150239944458, 0.533387303352356
7, 26, 55, 83Perc, first, 0.8574862480163574, 1.1835315227508545, 0.746108889579773, 0.6507044434547424, 0.5355433821678162, 0.8157939910888672, 0.46560096740722656, 0.308045357465744, 6.629002571105957, 0.9733505845069885, 0.2871287167072296, 0.32274383306503296, 0.0938844084739685, 0.2472897619009018, 0.9920578002929688, 0.937150239944458, 0.55402672290802
7, 26, 31, 83Perc, last, 0.8574862480163574, 1.1835315227508545, 0.746108889579773, 0.6507044434547424, 0.5355433821678162, 0.8157939910888672, 0.46560096740722656, 0.308045357465744, 6.629002571105957, 0.9733505845069885, 0.2871287167072296, 0.32274383306503296, 0.1095169335603714, 0.23984351754188538, 0.9915793538093567, 0.9431769251823425, 0.5473492741584778
7, 26, 27, 83Perc, first_last, 0.8574862480163574, 1.1835315227508545, 0.746108889579773, 0.6507044434547424, 0.5355433821678162, 0.8157939910888672, 0.46560096740722656, 0.308045357465744, 6.629002571105957, 0.9733505845069885, 0.2871287167072296, 0.32274383306503296, 0.11118590831756592, 0.22317644953727722, 0.9925362467765808, 0.9496340751647949, 0.5503844618797302
7, 26, 11, 83Perc, new, 0.8574862480163574, 1.1835315227508545, 0.746108889579773, 0.6507044434547424, 0.5355433821678162, 0.8157939910888672, 0.46560096740722656, 0.308045357465744, 6.629002571105957, 0.9733505845069885, 0.2871287167072296, 0.32274383306503296, 2.5316739082336426, 2.5270776748657227, 0.1017654687166214, 0.10589754581451416, 0.08640226721763611
7, 26, 40, 60Perc, all, 0.8574862480163574, 1.1835315227508545, 0.746108889579773, 0.6507044434547424, 0.5355433821678162, 0.7463237047195435, 0.6226763725280762, 0.13798853754997253, 1.085425853729248, 0.9828168153762817, 0.7205643057823181, 0.49060285091400146, 0.09338770061731339, 0.21451474726200104, 0.9934884905815125, 0.9495387673377991, 0.5554072260856628
7, 26, 30, 60Perc, first, 0.8574862480163574, 1.1835315227508545, 0.746108889579773, 0.6507044434547424, 0.5355433821678162, 0.7463237047195435, 0.6226763725280762, 0.13798853754997253, 1.085425853729248, 0.9828168153762817, 0.7205643057823181, 0.49060285091400146, 0.09368162602186203, 0.19881755113601685, 0.9969251155853271, 0.956049919128418, 0.5707096457481384
7, 26, 33, 60Perc, last, 0.8574862480163574, 1.1835315227508545, 0.746108889579773, 0.6507044434547424, 0.5355433821678162, 0.7463237047195435, 0.6226763725280762, 0.13798853754997253, 1.085425853729248, 0.9828168153762817, 0.7205643057823181, 0.49060285091400146, 0.09093742817640305, 0.18491250276565552, 0.9960207343101501, 0.9620184302330017, 0.5684502124786377
7, 26, 46, 60Perc, first_last, 0.8574862480163574, 1.1835315227508545, 0.746108889579773, 0.6507044434547424, 0.5355433821678162, 0.7463237047195435, 0.6226763725280762, 0.13798853754997253, 1.085425853729248, 0.9828168153762817, 0.7205643057823181, 0.49060285091400146, 0.08287447690963745, 0.17621509730815887, 0.9946942925453186, 0.960933268070221, 0.5663962364196777
7, 26, 11, 60Perc, new, 0.8574862480163574, 1.1835315227508545, 0.746108889579773, 0.6507044434547424, 0.5355433821678162, 0.7463237047195435, 0.6226763725280762, 0.13798853754997253, 1.085425853729248, 0.9828168153762817, 0.7205643057823181, 0.49060285091400146, 2.537978410720825, 2.53652024269104, 0.1046665832400322, 0.09332609921693802, 0.09397144615650177
7, 26, 34, 30Perc, all, 0.8574862480163574, 1.1835315227508545, 0.746108889579773, 0.6507044434547424, 0.5355433821678162, 0.7340795397758484, 0.6918371915817261, 0.4393046498298645, 9.691788673400879, 0.9617195725440979, 0.17915309965610504, 0.2604408264160156, 0.09833093732595444, 0.14132358133792877, 0.9989131689071655, 0.9793702363967896, 0.5777789354324341
7, 26, 41, 30Perc, first, 0.8574862480163574, 1.1835315227508545, 0.746108889579773, 0.6507044434547424, 0.5355433821678162, 0.7340795397758484, 0.6918371915817261, 0.4393046498298645, 9.691788673400879, 0.9617195725440979, 0.17915309965610504, 0.2604408264160156, 0.0868704617023468, 0.13732598721981049, 0.9992754459381104, 0.9826275706291199, 0.5678654313087463
7, 26, 40, 30Perc, last, 0.8574862480163574, 1.1835315227508545, 0.746108889579773, 0.6507044434547424, 0.5355433821678162, 0.7340795397758484, 0.6918371915817261, 0.4393046498298645, 9.691788673400879, 0.9617195725440979, 0.17915309965610504, 0.2604408264160156, 0.09077370166778564, 0.1424756646156311, 0.9985508918762207, 0.9761129021644592, 0.5517296195030212
7, 26, 33, 30Perc, first_last, 0.8574862480163574, 1.1835315227508545, 0.746108889579773, 0.6507044434547424, 0.5355433821678162, 0.7340795397758484, 0.6918371915817261, 0.4393046498298645, 9.691788673400879, 0.9617195725440979, 0.17915309965610504, 0.2604408264160156, 0.09946276247501373, 0.1742495447397232, 0.9985508918762207, 0.966340959072113, 0.5722421407699585
7, 26, 11, 30Perc, new, 0.8574862480163574, 1.1835315227508545, 0.746108889579773, 0.6507044434547424, 0.5355433821678162, 0.7340795397758484, 0.6918371915817261, 0.4393046498298645, 9.691788673400879, 0.9617195725440979, 0.17915309965610504, 0.2604408264160156, 2.572427272796631, 2.562720537185669, 0.10010868310928345, 0.10206297785043716, 0.09734233468770981
7, 26, 34, 16Perc, all, 0.8574862480163574, 1.1835315227508545, 0.746108889579773, 0.6507044434547424, 0.5355433821678162, 0.7541268467903137, 0.7064765095710754, 0.6235005855560303, 22.73837661743164, 0.9722423553466797, 0.1344902366399765, 0.27769288420677185, 0.14099805057048798, 0.17255045473575592, 0.9903451800346375, 0.9804772138595581, 0.5158305764198303
7, 26, 29, 16Perc, first, 0.8574862480163574, 1.1835315227508545, 0.746108889579773, 0.6507044434547424, 0.5355433821678162, 0.7541268467903137, 0.7064765095710754, 0.6235005855560303, 22.73837661743164, 0.9722423553466797, 0.1344902366399765, 0.27769288420677185, 0.12335480749607086, 0.17150746285915375, 0.998310387134552, 0.9826464056968689, 0.5203717947006226
7, 26, 37, 16Perc, last, 0.8574862480163574, 1.1835315227508545, 0.746108889579773, 0.6507044434547424, 0.5355433821678162, 0.7541268467903137, 0.7064765095710754, 0.6235005855560303, 22.73837661743164, 0.9722423553466797, 0.1344902366399765, 0.27769288420677185, 0.11213028430938721, 0.1404019445180893, 0.9990345239639282, 0.9934924244880676, 0.5270350575447083
7, 26, 28, 16Perc, first_last, 0.8574862480163574, 1.1835315227508545, 0.746108889579773, 0.6507044434547424, 0.5355433821678162, 0.7541268467903137, 0.7064765095710754, 0.6235005855560303, 22.73837661743164, 0.9722423553466797, 0.1344902366399765, 0.27769288420677185, 0.12302179634571075, 0.14975310862064362, 0.9985517859458923, 0.9934924244880676, 0.5176555514335632
7, 26, 15, 16Perc, new, 0.8574862480163574, 1.1835315227508545, 0.746108889579773, 0.6507044434547424, 0.5355433821678162, 0.7541268467903137, 0.7064765095710754, 0.6235005855560303, 22.73837661743164, 0.9722423553466797, 0.1344902366399765, 0.27769288420677185, 2.5712192058563232, 2.560675859451294, 0.1098238006234169, 0.09761388599872589, 0.09392241388559341
7, 26, 44, fiveMovements, all, 0.8574862480163574, 1.1835315227508545, 0.746108889579773, 0.6507044434547424, 0.5355433821678162, 0.7927565574645996, 0.685492753982544, 0.6399865746498108, 7.756950855255127, 1.0, 0.24623115360736847, 0.1884162425994873, 0.11680823564529419, 0.12598077952861786, 1.0, 1.0, 0.29247522354125977
7, 26, 38, fiveMovements, first, 0.8574862480163574, 1.1835315227508545, 0.746108889579773, 0.6507044434547424, 0.5355433821678162, 0.7927565574645996, 0.685492753982544, 0.6399865746498108, 7.756950855255127, 1.0, 0.24623115360736847, 0.1884162425994873, 0.1200118139386177, 0.13292446732521057, 1.0, 1.0, 0.28667062520980835
7, 26, 35, fiveMovements, last, 0.8574862480163574, 1.1835315227508545, 0.746108889579773, 0.6507044434547424, 0.5355433821678162, 0.7927565574645996, 0.685492753982544, 0.6399865746498108, 7.756950855255127, 1.0, 0.24623115360736847, 0.1884162425994873, 0.12232831865549088, 0.1321747601032257, 1.0, 1.0, 0.28599271178245544
7, 26, 38, fiveMovements, first_last, 0.8574862480163574, 1.1835315227508545, 0.746108889579773, 0.6507044434547424, 0.5355433821678162, 0.7927565574645996, 0.685492753982544, 0.6399865746498108, 7.756950855255127, 1.0, 0.24623115360736847, 0.1884162425994873, 0.12098481506109238, 0.12847095727920532, 0.9994410276412964, 1.0, 0.2888738214969635
7, 26, 11, fiveMovements, new, 0.8574862480163574, 1.1835315227508545, 0.746108889579773, 0.6507044434547424, 0.5355433821678162, 0.7927565574645996, 0.685492753982544, 0.6399865746498108, 7.756950855255127, 1.0, 0.24623115360736847, 0.1884162425994873, 2.6163766384124756, 2.572922706604004, 0.24259363114833832, 0.2613065242767334, 0.09791543334722519
7, 26, 15, oneMovement, all, 0.8574862480163574, 1.1835315227508545, 0.746108889579773, 0.6507044434547424, 0.5355433821678162, 0.7857142686843872, 0.6925327777862549, 1.1529484987258911, 1.0805608034133911, 0.9750567078590393, 1.0, 0.0969342291355133, 0.13408051431179047, 0.13446453213691711, 1.0, 1.0, 0.25611668825149536
7, 26, 16, oneMovement, first, 0.8574862480163574, 1.1835315227508545, 0.746108889579773, 0.6507044434547424, 0.5355433821678162, 0.7857142686843872, 0.6925327777862549, 1.1529484987258911, 1.0805608034133911, 0.9750567078590393, 1.0, 0.0969342291355133, 0.1341215819120407, 0.13445724546909332, 1.0, 1.0, 0.1847517341375351
7, 26, 15, oneMovement, last, 0.8574862480163574, 1.1835315227508545, 0.746108889579773, 0.6507044434547424, 0.5355433821678162, 0.7857142686843872, 0.6925327777862549, 1.1529484987258911, 1.0805608034133911, 0.9750567078590393, 1.0, 0.0969342291355133, 0.13399535417556763, 0.13437671959400177, 1.0, 1.0, 0.2529788315296173
7, 26, 16, oneMovement, first_last, 0.8574862480163574, 1.1835315227508545, 0.746108889579773, 0.6507044434547424, 0.5355433821678162, 0.7857142686843872, 0.6925327777862549, 1.1529484987258911, 1.0805608034133911, 0.9750567078590393, 1.0, 0.0969342291355133, 0.13415825366973877, 0.13450703024864197, 1.0, 1.0, 0.18487894535064697
7, 26, 17, oneMovement, new, 0.8574862480163574, 1.1835315227508545, 0.746108889579773, 0.6507044434547424, 0.5355433821678162, 0.7857142686843872, 0.6925327777862549, 1.1529484987258911, 1.0805608034133911, 0.9750567078590393, 1.0, 0.0969342291355133, 3.3359534740448, 3.270803928375244, 1.0, 1.0, 0.0969342291355133
8, 30, 44, 83Perc, all, 0.8248280882835388, 1.1830254793167114, 0.7565878629684448, 0.6543998718261719, 0.5339483022689819, 0.8231140375137329, 0.45710238814353943, 0.09529484808444977, 0.24605292081832886, 0.9938759207725525, 0.9367197751998901, 0.5402671098709106, 0.08752919733524323, 0.1805943101644516, 0.9957418441772461, 0.961687445640564, 0.5475515723228455
8, 30, 35, 83Perc, first, 0.8248280882835388, 1.1830254793167114, 0.7565878629684448, 0.6543998718261719, 0.5339483022689819, 0.8231140375137329, 0.45710238814353943, 0.09529484808444977, 0.24605292081832886, 0.9938759207725525, 0.9367197751998901, 0.5402671098709106, 0.10903660953044891, 0.16721652448177338, 0.9907181262969971, 0.9647008180618286, 0.5356131196022034
8, 30, 31, 83Perc, last, 0.8248280882835388, 1.1830254793167114, 0.7565878629684448, 0.6543998718261719, 0.5339483022689819, 0.8231140375137329, 0.45710238814353943, 0.09529484808444977, 0.24605292081832886, 0.9938759207725525, 0.9367197751998901, 0.5402671098709106, 0.10681955516338348, 0.1846400648355484, 0.9932060837745667, 0.9634093642234802, 0.5550384521484375
8, 30, 34, 83Perc, first_last, 0.8248280882835388, 1.1830254793167114, 0.7565878629684448, 0.6543998718261719, 0.5339483022689819, 0.8231140375137329, 0.45710238814353943, 0.09529484808444977, 0.24605292081832886, 0.9938759207725525, 0.9367197751998901, 0.5402671098709106, 0.11820905655622482, 0.21379795670509338, 0.9873211979866028, 0.9522169828414917, 0.5366248488426208
8, 30, 12, 83Perc, new, 0.8248280882835388, 1.1830254793167114, 0.7565878629684448, 0.6543998718261719, 0.5339483022689819, 0.8231140375137329, 0.45710238814353943, 0.09529484808444977, 0.24605292081832886, 0.9938759207725525, 0.9367197751998901, 0.5402671098709106, 2.5302493572235107, 2.5258731842041016, 0.10166977345943451, 0.10675850510597229, 0.08640226721763611
8, 30, 68, 60Perc, all, 0.8248280882835388, 1.1830254793167114, 0.7565878629684448, 0.6543998718261719, 0.5339483022689819, 0.740680456161499, 0.6174386143684387, 0.3154487609863281, 7.131003379821777, 0.979681670665741, 0.2810634970664978, 0.3139570653438568, 0.07098375260829926, 0.12284339964389801, 0.9983721375465393, 0.9799240231513977, 0.5479100346565247
8, 30, 43, 60Perc, first, 0.8248280882835388, 1.1830254793167114, 0.7565878629684448, 0.6543998718261719, 0.5339483022689819, 0.740680456161499, 0.6174386143684387, 0.3154487609863281, 7.131003379821777, 0.979681670665741, 0.2810634970664978, 0.3139570653438568, 0.08637277036905289, 0.18942853808403015, 0.9964427947998047, 0.960933268070221, 0.5777960419654846
8, 30, 38, 60Perc, last, 0.8248280882835388, 1.1830254793167114, 0.7565878629684448, 0.6543998718261719, 0.5339483022689819, 0.740680456161499, 0.6174386143684387, 0.3154487609863281, 7.131003379821777, 0.979681670665741, 0.2810634970664978, 0.3139570653438568, 0.09364426881074905, 0.23009228706359863, 0.9936090707778931, 0.9419425129890442, 0.5518126487731934
8, 30, 54, 60Perc, first_last, 0.8248280882835388, 1.1830254793167114, 0.7565878629684448, 0.6543998718261719, 0.5339483022689819, 0.740680456161499, 0.6174386143684387, 0.3154487609863281, 7.131003379821777, 0.979681670665741, 0.2810634970664978, 0.3139570653438568, 0.08270081132650375, 0.1826740950345993, 0.9942722916603088, 0.954422116279602, 0.5468830466270447
8, 30, 13, 60Perc, new, 0.8248280882835388, 1.1830254793167114, 0.7565878629684448, 0.6543998718261719, 0.5339483022689819, 0.740680456161499, 0.6174386143684387, 0.3154487609863281, 7.131003379821777, 0.979681670665741, 0.2810634970664978, 0.3139570653438568, 2.5338947772979736, 2.531002998352051, 0.10255637019872665, 0.10689093917608261, 0.09150662273168564
8, 30, 26, 30Perc, all, 0.8248280882835388, 1.1830254793167114, 0.7565878629684448, 0.6543998718261719, 0.5339483022689819, 0.7541838884353638, 0.6834001541137695, 0.0698712095618248, 1.0089279413223267, 0.9998792409896851, 0.7459283471107483, 0.4734760522842407, 0.1255878508090973, 0.2054150402545929, 0.9950488805770874, 0.9630836248397827, 0.573613166809082
8, 30, 36, 30Perc, first, 0.8248280882835388, 1.1830254793167114, 0.7565878629684448, 0.6543998718261719, 0.5339483022689819, 0.7541838884353638, 0.6834001541137695, 0.0698712095618248, 1.0089279413223267, 0.9998792409896851, 0.7459283471107483, 0.4734760522842407, 0.0994269847869873, 0.20091746747493744, 0.9984301328659058, 0.9695982336997986, 0.5583210587501526
8, 30, 37, 30Perc, last, 0.8248280882835388, 1.1830254793167114, 0.7565878629684448, 0.6543998718261719, 0.5339483022689819, 0.7541838884353638, 0.6834001541137695, 0.0698712095618248, 1.0089279413223267, 0.9998792409896851, 0.7459283471107483, 0.4734760522842407, 0.0993320569396019, 0.1740301102399826, 0.9985508918762207, 0.9674267172813416, 0.5632777810096741
8, 30, 36, 30Perc, first_last, 0.8248280882835388, 1.1830254793167114, 0.7565878629684448, 0.6543998718261719, 0.5339483022689819, 0.7541838884353638, 0.6834001541137695, 0.0698712095618248, 1.0089279413223267, 0.9998792409896851, 0.7459283471107483, 0.4734760522842407, 0.10248254239559174, 0.17771916091442108, 0.9973433017730713, 0.9685124754905701, 0.5623286366462708
8, 30, 11, 30Perc, new, 0.8248280882835388, 1.1830254793167114, 0.7565878629684448, 0.6543998718261719, 0.5339483022689819, 0.7541838884353638, 0.6834001541137695, 0.0698712095618248, 1.0089279413223267, 0.9998792409896851, 0.7459283471107483, 0.4734760522842407, 2.575455665588379, 2.576096296310425, 0.1043352261185646, 0.0933767631649971, 0.09871335327625275
8, 30, 29, 16Perc, all, 0.8248280882835388, 1.1830254793167114, 0.7565878629684448, 0.6543998718261719, 0.5339483022689819, 0.730451762676239, 0.7140734791755676, 0.5520107746124268, 11.547423362731934, 0.9886555671691895, 0.11713665723800659, 0.261565238237381, 0.126421257853508, 0.16862982511520386, 0.9980690479278564, 0.9826464056968689, 0.4933367371559143
8, 30, 29, 16Perc, first, 0.8248280882835388, 1.1830254793167114, 0.7565878629684448, 0.6543998718261719, 0.5339483022689819, 0.730451762676239, 0.7140734791755676, 0.5520107746124268, 11.547423362731934, 0.9886555671691895, 0.11713665723800659, 0.261565238237381, 0.12859171628952026, 0.17318306863307953, 0.9978276491165161, 0.9783080220222473, 0.4793311357498169
8, 30, 36, 16Perc, last, 0.8248280882835388, 1.1830254793167114, 0.7565878629684448, 0.6543998718261719, 0.5339483022689819, 0.730451762676239, 0.7140734791755676, 0.5520107746124268, 11.547423362731934, 0.9886555671691895, 0.11713665723800659, 0.261565238237381, 0.11775501072406769, 0.17813989520072937, 0.9985517859458923, 0.9761388301849365, 0.504413902759552
8, 30, 43, 16Perc, first_last, 0.8248280882835388, 1.1830254793167114, 0.7565878629684448, 0.6543998718261719, 0.5339483022689819, 0.730451762676239, 0.7140734791755676, 0.5520107746124268, 11.547423362731934, 0.9886555671691895, 0.11713665723800659, 0.261565238237381, 0.11338066309690475, 0.14459429681301117, 0.9985517859458923, 0.989154040813446, 0.4762329161167145
8, 30, 12, 16Perc, new, 0.8248280882835388, 1.1830254793167114, 0.7565878629684448, 0.6543998718261719, 0.5339483022689819, 0.730451762676239, 0.7140734791755676, 0.5520107746124268, 11.547423362731934, 0.9886555671691895, 0.11713665723800659, 0.261565238237381, 2.60366153717041, 2.5962395668029785, 0.11127202212810516, 0.1323210448026657, 0.09392241388559341
8, 30, 38, fiveMovements, all, 0.8248280882835388, 1.1830254793167114, 0.7565878629684448, 0.6543998718261719, 0.5339483022689819, 0.8184104561805725, 0.6902804970741272, 0.6506096124649048, 12.440797805786133, 1.0, 0.14070351421833038, 0.25188544392585754, 0.12374429404735565, 0.12702594697475433, 1.0, 0.9949748516082764, 0.2819252610206604
8, 30, 39, fiveMovements, first, 0.8248280882835388, 1.1830254793167114, 0.7565878629684448, 0.6543998718261719, 0.5339483022689819, 0.8184104561805725, 0.6902804970741272, 0.6506096124649048, 12.440797805786133, 1.0, 0.14070351421833038, 0.25188544392585754, 0.1222863644361496, 0.1267746388912201, 1.0, 1.0, 0.28408610820770264
8, 30, 38, fiveMovements, last, 0.8248280882835388, 1.1830254793167114, 0.7565878629684448, 0.6543998718261719, 0.5339483022689819, 0.8184104561805725, 0.6902804970741272, 0.6506096124649048, 12.440797805786133, 1.0, 0.14070351421833038, 0.25188544392585754, 0.12387643754482269, 0.1273634433746338, 1.0, 1.0, 0.2826031744480133
8, 30, 41, fiveMovements, first_last, 0.8248280882835388, 1.1830254793167114, 0.7565878629684448, 0.6543998718261719, 0.5339483022689819, 0.8184104561805725, 0.6902804970741272, 0.6506096124649048, 12.440797805786133, 1.0, 0.14070351421833038, 0.25188544392585754, 0.12255045026540756, 0.12395909428596497, 0.9994410276412964, 1.0, 0.2856113910675049
8, 30, 11, fiveMovements, new, 0.8248280882835388, 1.1830254793167114, 0.7565878629684448, 0.6543998718261719, 0.5339483022689819, 0.8184104561805725, 0.6902804970741272, 0.6506096124649048, 12.440797805786133, 1.0, 0.14070351421833038, 0.25188544392585754, 2.665843963623047, 2.6024112701416016, 0.24035774171352386, 0.28140702843666077, 0.09791543334722519
8, 30, 17, oneMovement, all, 0.8248280882835388, 1.1830254793167114, 0.7565878629684448, 0.6543998718261719, 0.5339483022689819, 0.6877551078796387, 0.6888860464096069, 0.8490588665008545, 0.8606868386268616, 1.0, 1.0, 0.0969342291355133, 0.13840368390083313, 0.1394634246826172, 1.0, 1.0, 0.1462494134902954
8, 30, 16, oneMovement, first, 0.8248280882835388, 1.1830254793167114, 0.7565878629684448, 0.6543998718261719, 0.5339483022689819, 0.6877551078796387, 0.6888860464096069, 0.8490588665008545, 0.8606868386268616, 1.0, 1.0, 0.0969342291355133, 0.13823068141937256, 0.13968150317668915, 1.0, 1.0, 0.17533816397190094
8, 30, 17, oneMovement, last, 0.8248280882835388, 1.1830254793167114, 0.7565878629684448, 0.6543998718261719, 0.5339483022689819, 0.6877551078796387, 0.6888860464096069, 0.8490588665008545, 0.8606868386268616, 1.0, 1.0, 0.0969342291355133, 0.13833148777484894, 0.1405356228351593, 1.0, 1.0, 0.1417122483253479
8, 30, 16, oneMovement, first_last, 0.8248280882835388, 1.1830254793167114, 0.7565878629684448, 0.6543998718261719, 0.5339483022689819, 0.6877551078796387, 0.6888860464096069, 0.8490588665008545, 0.8606868386268616, 1.0, 1.0, 0.0969342291355133, 0.13836315274238586, 0.1398075819015503, 1.0, 1.0, 0.1755077838897705
8, 30, 11, oneMovement, new, 0.8248280882835388, 1.1830254793167114, 0.7565878629684448, 0.6543998718261719, 0.5339483022689819, 0.6877551078796387, 0.6888860464096069, 0.8490588665008545, 0.8606868386268616, 1.0, 1.0, 0.0969342291355133, 3.868924617767334, 3.7898776531219482, 0.0, 0.0, 0.05605733022093773
9, 31, 30, 83Perc, all, 0.8243459463119507, 1.2156509160995483, 0.7571353316307068, 0.6431211233139038, 0.5258768200874329, 0.8261281251907349, 0.48016998171806335, 0.1250731647014618, 0.3310113847255707, 0.9877996444702148, 0.908308207988739, 0.5576689839363098, 0.10917714983224869, 0.19470058381557465, 0.9933974742889404, 0.9612569808959961, 0.5139619708061218
9, 31, 38, 83Perc, first, 0.8243459463119507, 1.2156509160995483, 0.7571353316307068, 0.6431211233139038, 0.5258768200874329, 0.8261281251907349, 0.48016998171806335, 0.1250731647014618, 0.3310113847255707, 0.9877996444702148, 0.908308207988739, 0.5576689839363098, 0.10650684684515, 0.19146977365016937, 0.9912444353103638, 0.9629788994789124, 0.5147713422775269
9, 31, 41, 83Perc, last, 0.8243459463119507, 1.2156509160995483, 0.7571353316307068, 0.6431211233139038, 0.5258768200874329, 0.8261281251907349, 0.48016998171806335, 0.1250731647014618, 0.3310113847255707, 0.9877996444702148, 0.908308207988739, 0.5576689839363098, 0.10575646907091141, 0.2229243516921997, 0.9900961518287659, 0.9504950642585754, 0.5441116690635681
9, 31, 55, 83Perc, first_last, 0.8243459463119507, 1.2156509160995483, 0.7571353316307068, 0.6431211233139038, 0.5258768200874329, 0.8261281251907349, 0.48016998171806335, 0.1250731647014618, 0.3310113847255707, 0.9877996444702148, 0.908308207988739, 0.5576689839363098, 0.09907978028059006, 0.22001715004444122, 0.9908138513565063, 0.9479121565818787, 0.5467422008514404
9, 31, 11, 83Perc, new, 0.8243459463119507, 1.2156509160995483, 0.7571353316307068, 0.6431211233139038, 0.5258768200874329, 0.8261281251907349, 0.48016998171806335, 0.1250731647014618, 0.3310113847255707, 0.9877996444702148, 0.908308207988739, 0.5576689839363098, 2.5360984802246094, 2.5364396572113037, 0.1017654687166214, 0.09642703086137772, 0.08640226721763611
9, 31, 39, 60Perc, all, 0.8243459463119507, 1.2156509160995483, 0.7571353316307068, 0.6431211233139038, 0.5258768200874329, 0.7402463555335999, 0.6280168294906616, 0.13602444529533386, 0.429800420999527, 0.9845049977302551, 0.8914812803268433, 0.5029270052909851, 0.09072233736515045, 0.179608553647995, 0.9955986738204956, 0.9582203030586243, 0.5398993492126465
9, 31, 40, 60Perc, first, 0.8243459463119507, 1.2156509160995483, 0.7571353316307068, 0.6431211233139038, 0.5258768200874329, 0.7402463555335999, 0.6280168294906616, 0.13602444529533386, 0.429800420999527, 0.9845049977302551, 0.8914812803268433, 0.5029270052909851, 0.09313606470823288, 0.17814940214157104, 0.9942722916603088, 0.9669017791748047, 0.5394885540008545
9, 31, 43, 60Perc, last, 0.8243459463119507, 1.2156509160995483, 0.7571353316307068, 0.6431211233139038, 0.5258768200874329, 0.7402463555335999, 0.6280168294906616, 0.13602444529533386, 0.429800420999527, 0.9845049977302551, 0.8914812803268433, 0.5029270052909851, 0.09546280652284622, 0.20034563541412354, 0.9920414686203003, 0.9620184302330017, 0.5555099248886108
9, 31, 40, 60Perc, first_last, 0.8243459463119507, 1.2156509160995483, 0.7571353316307068, 0.6431211233139038, 0.5258768200874329, 0.7402463555335999, 0.6280168294906616, 0.13602444529533386, 0.429800420999527, 0.9845049977302551, 0.8914812803268433, 0.5029270052909851, 0.09387080371379852, 0.1877124309539795, 0.994573712348938, 0.9555073380470276, 0.5486289262771606
9, 31, 11, 60Perc, new, 0.8243459463119507, 1.2156509160995483, 0.7571353316307068, 0.6431211233139038, 0.5258768200874329, 0.7402463555335999, 0.6280168294906616, 0.13602444529533386, 0.429800420999527, 0.9845049977302551, 0.8914812803268433, 0.5029270052909851, 2.544612169265747, 2.5302608013153076, 0.10376220941543579, 0.10146500170230865, 0.09397144615650177
9, 31, 63, 30Perc, all, 0.8243459463119507, 1.2156509160995483, 0.7571353316307068, 0.6431211233139038, 0.5258768200874329, 0.7437513470649719, 0.6851402521133423, 0.4626752734184265, 12.727170944213867, 0.9725878238677979, 0.10857763141393661, 0.1762813776731491, 0.06806705892086029, 0.12626954913139343, 0.9987924098968506, 0.9793702363967896, 0.5479329228401184
9, 31, 43, 30Perc, first, 0.8243459463119507, 1.2156509160995483, 0.7571353316307068, 0.6431211233139038, 0.5258768200874329, 0.7437513470649719, 0.6851402521133423, 0.4626752734184265, 12.727170944213867, 0.9725878238677979, 0.10857763141393661, 0.1762813776731491, 0.08851142972707748, 0.16174598038196564, 0.9991546869277954, 0.9739413857460022, 0.555631697177887
9, 31, 41, 30Perc, last, 0.8243459463119507, 1.2156509160995483, 0.7571353316307068, 0.6431211233139038, 0.5258768200874329, 0.7437513470649719, 0.6851402521133423, 0.4626752734184265, 12.727170944213867, 0.9725878238677979, 0.10857763141393661, 0.1762813776731491, 0.10288060456514359, 0.18876969814300537, 0.9951696395874023, 0.9598262906074524, 0.5582683086395264
9, 31, 56, 30Perc, first_last, 0.8243459463119507, 1.2156509160995483, 0.7571353316307068, 0.6431211233139038, 0.5258768200874329, 0.7437513470649719, 0.6851402521133423, 0.4626752734184265, 12.727170944213867, 0.9725878238677979, 0.10857763141393661, 0.1762813776731491, 0.07323970645666122, 0.13039490580558777, 0.9990339279174805, 0.9826275706291199, 0.5496203303337097
9, 31, 12, 30Perc, new, 0.8243459463119507, 1.2156509160995483, 0.7571353316307068, 0.6431211233139038, 0.5258768200874329, 0.7437513470649719, 0.6851402521133423, 0.4626752734184265, 12.727170944213867, 0.9725878238677979, 0.10857763141393661, 0.1762813776731491, 2.573859691619873, 2.5711162090301514, 0.1028861254453659, 0.10314875096082687, 0.10018983483314514
9, 31, 38, 16Perc, all, 0.8243459463119507, 1.2156509160995483, 0.7571353316307068, 0.6431211233139038, 0.5258768200874329, 0.7580364942550659, 0.7157711386680603, 0.620669960975647, 13.469382286071777, 0.982862651348114, 0.09327548742294312, 0.14383329451084137, 0.12078241258859634, 0.14342795312404633, 0.9987931251525879, 0.9934924244880676, 0.5214328169822693
9, 31, 54, 16Perc, first, 0.8243459463119507, 1.2156509160995483, 0.7571353316307068, 0.6431211233139038, 0.5258768200874329, 0.7580364942550659, 0.7157711386680603, 0.620669960975647, 13.469382286071777, 0.982862651348114, 0.09327548742294312, 0.14383329451084137, 0.10413140803575516, 0.14656446874141693, 0.9992758631706238, 0.9826464056968689, 0.5036499500274658
9, 31, 31, 16Perc, last, 0.8243459463119507, 1.2156509160995483, 0.7571353316307068, 0.6431211233139038, 0.5258768200874329, 0.7580364942550659, 0.7157711386680603, 0.620669960975647, 13.469382286071777, 0.982862651348114, 0.09327548742294312, 0.14383329451084137, 0.14299745857715607, 0.19671523571014404, 0.9942070841789246, 0.9674620628356934, 0.5145573616027832
9, 31, 32, 16Perc, first_last, 0.8243459463119507, 1.2156509160995483, 0.7571353316307068, 0.6431211233139038, 0.5258768200874329, 0.7580364942550659, 0.7157711386680603, 0.620669960975647, 13.469382286071777, 0.982862651348114, 0.09327548742294312, 0.14383329451084137, 0.12720872461795807, 0.1667211651802063, 0.9985517859458923, 0.9848155975341797, 0.511883556842804
9, 31, 11, 16Perc, new, 0.8243459463119507, 1.2156509160995483, 0.7571353316307068, 0.6431211233139038, 0.5258768200874329, 0.7580364942550659, 0.7157711386680603, 0.620669960975647, 13.469382286071777, 0.982862651348114, 0.09327548742294312, 0.14383329451084137, 2.6224076747894287, 2.624795913696289, 0.11489258706569672, 0.09978307783603668, 0.0893387645483017
9, 31, 48, fiveMovements, all, 0.8243459463119507, 1.2156509160995483, 0.7571353316307068, 0.6431211233139038, 0.5258768200874329, 0.7339034080505371, 0.6953224539756775, 0.6230515241622925, 3.708348512649536, 1.0, 0.24120603501796722, 0.24917380511760712, 0.1217692643404007, 0.13181836903095245, 0.9988820552825928, 0.9949748516082764, 0.27645963430404663
9, 31, 11, fiveMovements, first, 0.8243459463119507, 1.2156509160995483, 0.7571353316307068, 0.6431211233139038, 0.5258768200874329, 0.7339034080505371, 0.6953224539756775, 0.6230515241622925, 3.708348512649536, 1.0, 0.24120603501796722, 0.24917380511760712, 0.1611454337835312, 1.0688024759292603, 0.9949692487716675, 0.7889447212219238, 0.47445130348205566
9, 31, 60, fiveMovements, last, 0.8243459463119507, 1.2156509160995483, 0.7571353316307068, 0.6431211233139038, 0.5258768200874329, 0.7339034080505371, 0.6953224539756775, 0.6230515241622925, 3.708348512649536, 1.0, 0.24120603501796722, 0.24917380511760712, 0.11425906419754028, 0.1261082887649536, 1.0, 0.9949748516082764, 0.27904415130615234
9, 31, 53, fiveMovements, first_last, 0.8243459463119507, 1.2156509160995483, 0.7571353316307068, 0.6431211233139038, 0.5258768200874329, 0.7339034080505371, 0.6953224539756775, 0.6230515241622925, 3.708348512649536, 1.0, 0.24120603501796722, 0.24917380511760712, 0.11853815615177155, 0.12995809316635132, 0.9988820552825928, 0.9949748516082764, 0.28226420283317566
9, 31, 11, fiveMovements, new, 0.8243459463119507, 1.2156509160995483, 0.7571353316307068, 0.6431211233139038, 0.5258768200874329, 0.7339034080505371, 0.6953224539756775, 0.6230515241622925, 3.708348512649536, 1.0, 0.24120603501796722, 0.24917380511760712, 2.6434686183929443, 2.5932650566101074, 0.21129122376441956, 0.286432147026062, 0.09579696506261826
9, 31, 15, oneMovement, all, 0.8243459463119507, 1.2156509160995483, 0.7571353316307068, 0.6431211233139038, 0.5258768200874329, 0.7244898080825806, 0.6906245946884155, 1.1140729188919067, 1.1073418855667114, 1.0, 1.0, 0.0969342291355133, 0.1412286013364792, 0.1412961333990097, 1.0, 1.0, 0.19471652805805206
9, 31, 15, oneMovement, first, 0.8243459463119507, 1.2156509160995483, 0.7571353316307068, 0.6431211233139038, 0.5258768200874329, 0.7244898080825806, 0.6906245946884155, 1.1140729188919067, 1.1073418855667114, 1.0, 1.0, 0.0969342291355133, 0.14190618693828583, 0.14111995697021484, 1.0, 1.0, 0.19878725707530975
9, 31, 15, oneMovement, last, 0.8243459463119507, 1.2156509160995483, 0.7571353316307068, 0.6431211233139038, 0.5258768200874329, 0.7244898080825806, 0.6906245946884155, 1.1140729188919067, 1.1073418855667114, 1.0, 1.0, 0.0969342291355133, 0.14120593667030334, 0.141213521361351, 1.0, 1.0, 0.18780477344989777
9, 31, 15, oneMovement, first_last, 0.8243459463119507, 1.2156509160995483, 0.7571353316307068, 0.6431211233139038, 0.5258768200874329, 0.7244898080825806, 0.6906245946884155, 1.1140729188919067, 1.1073418855667114, 1.0, 1.0, 0.0969342291355133, 0.14108093082904816, 0.14112812280654907, 1.0, 1.0, 0.20056819915771484
9, 31, 16, oneMovement, new, 0.8243459463119507, 1.2156509160995483, 0.7571353316307068, 0.6431211233139038, 0.5258768200874329, 0.7244898080825806, 0.6906245946884155, 1.1140729188919067, 1.1073418855667114, 1.0, 1.0, 0.0969342291355133, 3.411179542541504, 3.3429322242736816, 1.0, 1.0, 0.0969342291355133
10, 28, 22, 83Perc, all, 0.8484652638435364, 1.223588466644287, 0.7472594380378723, 0.6419277787208557, 0.5431728363037109, 0.8046417236328125, 0.5091056227684021, 0.08461570739746094, 0.3245936632156372, 0.9955504536628723, 0.9087386727333069, 0.5337919592857361, 0.12544001638889313, 0.24057500064373016, 0.9914836883544922, 0.9448988437652588, 0.5534196496009827
10, 28, 21, 83Perc, first, 0.8484652638435364, 1.223588466644287, 0.7472594380378723, 0.6419277787208557, 0.5431728363037109, 0.8046417236328125, 0.5091056227684021, 0.08461570739746094, 0.3245936632156372, 0.9955504536628723, 0.9087386727333069, 0.5337919592857361, 0.12494612485170364, 0.24322007596492767, 0.9921534657478333, 0.9453293085098267, 0.5534196496009827
10, 28, 37, 83Perc, last, 0.8484652638435364, 1.223588466644287, 0.7472594380378723, 0.6419277787208557, 0.5431728363037109, 0.8046417236328125, 0.5091056227684021, 0.08461570739746094, 0.3245936632156372, 0.9955504536628723, 0.9087386727333069, 0.5337919592857361, 0.10180213302373886, 0.2624347507953644, 0.9916272163391113, 0.9367197751998901, 0.5433022975921631
10, 28, 39, 83Perc, first_last, 0.8484652638435364, 1.223588466644287, 0.7472594380378723, 0.6419277787208557, 0.5431728363037109, 0.8046417236328125, 0.5091056227684021, 0.08461570739746094, 0.3245936632156372, 0.9955504536628723, 0.9087386727333069, 0.5337919592857361, 0.09715640544891357, 0.20119379460811615, 0.9932538866996765, 0.9586741328239441, 0.5497773885726929
10, 28, 11, 83Perc, new, 0.8484652638435364, 1.223588466644287, 0.7472594380378723, 0.6419277787208557, 0.5431728363037109, 0.8046417236328125, 0.5091056227684021, 0.08461570739746094, 0.3245936632156372, 0.9955504536628723, 0.9087386727333069, 0.5337919592857361, 2.531968116760254, 2.522125005722046, 0.10181330889463425, 0.1054670661687851, 0.09834074974060059
10, 28, 48, 60Perc, all, 0.8484652638435364, 1.223588466644287, 0.7472594380378723, 0.6419277787208557, 0.5431728363037109, 0.7512615919113159, 0.6297627687454224, 0.1022726446390152, 0.24159377813339233, 0.9922223687171936, 0.9424850940704346, 0.4888569414615631, 0.09309839457273483, 0.16091559827327728, 0.9914988279342651, 0.9663591980934143, 0.5479100346565247
10, 28, 46, 60Perc, first, 0.8484652638435364, 1.223588466644287, 0.7472594380378723, 0.6419277787208557, 0.5431728363037109, 0.7512615919113159, 0.6297627687454224, 0.1022726446390152, 0.24159377813339233, 0.9922223687171936, 0.9424850940704346, 0.4888569414615631, 0.08479972183704376, 0.13989901542663574, 0.9952972531318665, 0.972327709197998, 0.5812878608703613
10, 28, 30, 60Perc, last, 0.8484652638435364, 1.223588466644287, 0.7472594380378723, 0.6419277787208557, 0.5431728363037109, 0.7512615919113159, 0.6297627687454224, 0.1022726446390152, 0.24159377813339233, 0.9922223687171936, 0.9424850940704346, 0.4888569414615631, 0.10212654620409012, 0.17499272525310516, 0.994573712348938, 0.9717851281166077, 0.564547598361969
10, 28, 44, 60Perc, first_last, 0.8484652638435364, 1.223588466644287, 0.7472594380378723, 0.6419277787208557, 0.5431728363037109, 0.7512615919113159, 0.6297627687454224, 0.1022726446390152, 0.24159377813339233, 0.9922223687171936, 0.9424850940704346, 0.4888569414615631, 0.08536218851804733, 0.15843527019023895, 0.9947546124458313, 0.9744980931282043, 0.5680394172668457
10, 28, 14, 60Perc, new, 0.8484652638435364, 1.223588466644287, 0.7472594380378723, 0.6419277787208557, 0.5431728363037109, 0.7512615919113159, 0.6297627687454224, 0.1022726446390152, 0.24159377813339233, 0.9922223687171936, 0.9424850940704346, 0.4888569414615631, 2.5283191204071045, 2.5184555053710938, 0.10279753804206848, 0.10472056269645691, 0.09150662273168564
10, 28, 49, 30Perc, all, 0.8484652638435364, 1.223588466644287, 0.7472594380378723, 0.6419277787208557, 0.5431728363037109, 0.7609215378761292, 0.6881459355354309, 0.1062408834695816, 1.5055749416351318, 0.9973433017730713, 0.7383279204368591, 0.45233073830604553, 0.08197888731956482, 0.14347970485687256, 0.9980678558349609, 0.9826275706291199, 0.5654925107955933
10, 28, 29, 30Perc, first, 0.8484652638435364, 1.223588466644287, 0.7472594380378723, 0.6419277787208557, 0.5431728363037109, 0.7609215378761292, 0.6881459355354309, 0.1062408834695816, 1.5055749416351318, 0.9973433017730713, 0.7383279204368591, 0.45233073830604553, 0.10782875865697861, 0.15640373528003693, 0.997826337814331, 0.9847991466522217, 0.5730858445167542
10, 28, 26, 30Perc, last, 0.8484652638435364, 1.223588466644287, 0.7472594380378723, 0.6419277787208557, 0.5431728363037109, 0.7609215378761292, 0.6881459355354309, 0.1062408834695816, 1.5055749416351318, 0.9973433017730713, 0.7383279204368591, 0.45233073830604553, 0.11299874633550644, 0.17479249835014343, 0.997826337814331, 0.9793702363967896, 0.5676544904708862
10, 28, 35, 30Perc, first_last, 0.8484652638435364, 1.223588466644287, 0.7472594380378723, 0.6419277787208557, 0.5431728363037109, 0.7609215378761292, 0.6881459355354309, 0.1062408834695816, 1.5055749416351318, 0.9973433017730713, 0.7383279204368591, 0.45233073830604553, 0.09916120022535324, 0.16753900051116943, 0.9984301328659058, 0.9793702363967896, 0.5703437924385071
10, 28, 11, 30Perc, new, 0.8484652638435364, 1.223588466644287, 0.7472594380378723, 0.6419277787208557, 0.5431728363037109, 0.7609215378761292, 0.6881459355354309, 0.1062408834695816, 1.5055749416351318, 0.9973433017730713, 0.7383279204368591, 0.45233073830604553, 2.571967363357544, 2.574779748916626, 0.10300688445568085, 0.09446254372596741, 0.10018983483314514
10, 28, 37, 16Perc, all, 0.8484652638435364, 1.223588466644287, 0.7472594380378723, 0.6419277787208557, 0.5431728363037109, 0.7460903525352478, 0.7142857313156128, 0.5438913702964783, 17.007970809936523, 0.9908279180526733, 0.09327548742294312, 0.26661574840545654, 0.11089266091585159, 0.15489822626113892, 0.9992758631706238, 0.9913232326507568, 0.49528902769088745
10, 28, 31, 16Perc, first, 0.8484652638435364, 1.223588466644287, 0.7472594380378723, 0.6419277787208557, 0.5431728363037109, 0.7460903525352478, 0.7142857313156128, 0.5438913702964783, 17.007970809936523, 0.9908279180526733, 0.09327548742294312, 0.26661574840545654, 0.13052129745483398, 0.17232084274291992, 0.9956552982330322, 0.9848155975341797, 0.5154061913490295
10, 28, 32, 16Perc, last, 0.8484652638435364, 1.223588466644287, 0.7472594380378723, 0.6419277787208557, 0.5431728363037109, 0.7460903525352478, 0.7142857313156128, 0.5438913702964783, 17.007970809936523, 0.9908279180526733, 0.09327548742294312, 0.26661574840545654, 0.11762691289186478, 0.14362871646881104, 0.9995172619819641, 0.989154040813446, 0.4935489296913147
10, 28, 26, 16Perc, first_last, 0.8484652638435364, 1.223588466644287, 0.7472594380378723, 0.6419277787208557, 0.5431728363037109, 0.7460903525352478, 0.7142857313156128, 0.5438913702964783, 17.007970809936523, 0.9908279180526733, 0.09327548742294312, 0.26661574840545654, 0.12770676612854004, 0.15703174471855164, 0.9978276491165161, 0.9934924244880676, 0.49656227231025696
10, 28, 11, 16Perc, new, 0.8484652638435364, 1.223588466644287, 0.7472594380378723, 0.6419277787208557, 0.5431728363037109, 0.7460903525352478, 0.7142857313156128, 0.5438913702964783, 17.007970809936523, 0.9908279180526733, 0.09327548742294312, 0.26661574840545654, 2.6169450283050537, 2.6147682666778564, 0.11513396352529526, 0.09761388599872589, 0.09761480242013931
10, 28, 45, fiveMovements, all, 0.8484652638435364, 1.223588466644287, 0.7472594380378723, 0.6419277787208557, 0.5431728363037109, 0.7796780467033386, 0.699008584022522, 0.5213826298713684, 13.771886825561523, 1.0, 0.11055276542901993, 0.2149394154548645, 0.11606688797473907, 0.12520137429237366, 1.0, 0.9949748516082764, 0.2851029634475708
10, 28, 11, fiveMovements, first, 0.8484652638435364, 1.223588466644287, 0.7472594380378723, 0.6419277787208557, 0.5431728363037109, 0.7796780467033386, 0.699008584022522, 0.5213826298713684, 13.771886825561523, 1.0, 0.11055276542901993, 0.2149394154548645, 0.14928433299064636, 0.6203175187110901, 0.9977641105651855, 0.8643215894699097, 0.5966019630432129
10, 28, 11, fiveMovements, last, 0.8484652638435364, 1.223588466644287, 0.7472594380378723, 0.6419277787208557, 0.5431728363037109, 0.7796780467033386, 0.699008584022522, 0.5213826298713684, 13.771886825561523, 1.0, 0.11055276542901993, 0.2149394154548645, 0.15228767693042755, 0.6059977412223816, 0.9960871934890747, 0.8542713522911072, 0.5940598249435425
10, 28, 43, fiveMovements, first_last, 0.8484652638435364, 1.223588466644287, 0.7472594380378723, 0.6419277787208557, 0.5431728363037109, 0.7796780467033386, 0.699008584022522, 0.5213826298713684, 13.771886825561523, 1.0, 0.11055276542901993, 0.2149394154548645, 0.11676078289747238, 0.12743733823299408, 1.0, 0.9949748516082764, 0.2906109690666199
10, 28, 11, fiveMovements, new, 0.8484652638435364, 1.223588466644287, 0.7472594380378723, 0.6419277787208557, 0.5431728363037109, 0.7796780467033386, 0.699008584022522, 0.5213826298713684, 13.771886825561523, 1.0, 0.11055276542901993, 0.2149394154548645, 2.6289219856262207, 2.5824694633483887, 0.2129681408405304, 0.2713567912578583, 0.09579696506261826
10, 28, 16, oneMovement, all, 0.8484652638435364, 1.223588466644287, 0.7472594380378723, 0.6419277787208557, 0.5431728363037109, 0.6673469543457031, 0.7013526558876038, 1.127496361732483, 1.1206610202789307, 1.0, 1.0, 0.0969342291355133, 0.13417991995811462, 0.13692446053028107, 1.0, 1.0, 0.18051138520240784
10, 28, 16, oneMovement, first, 0.8484652638435364, 1.223588466644287, 0.7472594380378723, 0.6419277787208557, 0.5431728363037109, 0.6673469543457031, 0.7013526558876038, 1.127496361732483, 1.1206610202789307, 1.0, 1.0, 0.0969342291355133, 0.13427956402301788, 0.13705961406230927, 1.0, 1.0, 0.1962854564189911
10, 28, 16, oneMovement, last, 0.8484652638435364, 1.223588466644287, 0.7472594380378723, 0.6419277787208557, 0.5431728363037109, 0.6673469543457031, 0.7013526558876038, 1.127496361732483, 1.1206610202789307, 1.0, 1.0, 0.0969342291355133, 0.13417857885360718, 0.1373002529144287, 1.0, 1.0, 0.19687910377979279
10, 28, 16, oneMovement, first_last, 0.8484652638435364, 1.223588466644287, 0.7472594380378723, 0.6419277787208557, 0.5431728363037109, 0.6673469543457031, 0.7013526558876038, 1.127496361732483, 1.1206610202789307, 1.0, 1.0, 0.0969342291355133, 0.13419762253761292, 0.1370926797389984, 1.0, 1.0, 0.18844082951545715
10, 28, 15, oneMovement, new, 0.8484652638435364, 1.223588466644287, 0.7472594380378723, 0.6419277787208557, 0.5431728363037109, 0.6673469543457031, 0.7013526558876038, 1.127496361732483, 1.1206610202789307, 1.0, 1.0, 0.0969342291355133, 3.4938106536865234, 3.4230268001556396, 1.0, 1.0, 0.0969342291355133
